Signal Type: ECG_Type
Start Time: 26/04/2023 18:53:12
Sample Rate: 256
Length: 33728
Unit: µV

Data:
18:53:12,000; -1233
18:53:12,004; -1016
18:53:12,008; -1357
18:53:12,012; -1650
18:53:12,016; -1575
18:53:12,020; -1335
18:53:12,023; -1235
18:53:12,027; -1415
18:53:12,031; -1551
18:53:12,035; -1525
18:53:12,039; -1461
18:53:12,043; -1406
18:53:12,047; -1343
18:53:12,051; -1359
18:53:12,055; -1372
18:53:12,059; -1357
18:53:12,063; -1357
18:53:12,066; -1343
18:53:12,070; -1351
18:53:12,074; -1329
18:53:12,078; -1292
18:53:12,082; -1289
18:53:12,086; -1274
18:53:12,090; -1244
18:53:12,094; -1249
18:53:12,098; -1245
18:53:12,102; -1200
18:53:12,105; -1180
18:53:12,109; -1217
18:53:12,113; -1242
18:53:12,117; -1210
18:53:12,121; -1211
18:53:12,125; -1180
18:53:12,129; -1096
18:53:12,133; -1051
18:53:12,137; -1030
18:53:12,141; -1031
18:53:12,145; -1069
18:53:12,148; -1080
18:53:12,152; -1042
18:53:12,156; -1004
18:53:12,160; -978
18:53:12,164; -950
18:53:12,168; -898
18:53:12,172; -864
18:53:12,176; -859
18:53:12,180; -847
18:53:12,184; -844
18:53:12,188; -872
18:53:12,191; -893
18:53:12,195; -922
18:53:12,199; -910
18:53:12,203; -952
18:53:12,207; -961
18:53:12,211; -1000
18:53:12,215; -1045
18:53:12,219; -1053
18:53:12,223; -1077
18:53:12,227; -1078
18:53:12,230; -1088
18:53:12,234; -1122
18:53:12,238; -1153
18:53:12,242; -1159
18:53:12,246; -1138
18:53:12,250; -1133
18:53:12,254; -1170
18:53:12,258; -1163
18:53:12,262; -1146
18:53:12,266; -1198
18:53:12,270; -1203
18:53:12,273; -1210
18:53:12,277; -1217
18:53:12,281; -1191
18:53:12,285; -1145
18:53:12,289; -1134
18:53:12,293; -1153
18:53:12,297; -1177
18:53:12,301; -1182
18:53:12,305; -1220
18:53:12,309; -1214
18:53:12,312; -1180
18:53:12,316; -1132
18:53:12,320; -1102
18:53:12,324; -1135
18:53:12,328; -1146
18:53:12,332; -1124
18:53:12,336; -1097
18:53:12,340; -1108
18:53:12,344; -1107
18:53:12,348; -1102
18:53:12,352; -1125
18:53:12,355; -1121
18:53:12,359; -1163
18:53:12,363; -1183
18:53:12,367; -1166
18:53:12,371; -1173
18:53:12,375; -1182
18:53:12,379; -1176
18:53:12,383; -1186
18:53:12,387; -1166
18:53:12,391; -1170
18:53:12,395; -1175
18:53:12,398; -1133
18:53:12,402; -1120
18:53:12,406; -1148
18:53:12,410; -1162
18:53:12,414; -1157
18:53:12,418; -1174
18:53:12,422; -1169
18:53:12,426; -1124
18:53:12,430; -1087
18:53:12,434; -1108
18:53:12,438; -1145
18:53:12,441; -1156
18:53:12,445; -1203
18:53:12,449; -1226
18:53:12,453; -1202
18:53:12,457; -1158
18:53:12,461; -1140
18:53:12,465; -1113
18:53:12,469; -1057
18:53:12,473; -1042
18:53:12,477; -989
18:53:12,480; -984
18:53:12,484; -994
18:53:12,488; -954
18:53:12,492; -982
18:53:12,496; -985
18:53:12,500; -985
18:53:12,504; -994
18:53:12,508; -976
18:53:12,512; -986
18:53:12,516; -998
18:53:12,520; -990
18:53:12,523; -1001
18:53:12,527; -986
18:53:12,531; -1046
18:53:12,535; -1096
18:53:12,539; -1122
18:53:12,543; -1138
18:53:12,547; -1178
18:53:12,551; -1137
18:53:12,555; -1121
18:53:12,559; -1088
18:53:12,562; -1102
18:53:12,566; -1086
18:53:12,570; -1106
18:53:12,574; -1130
18:53:12,578; -1116
18:53:12,582; -1124
18:53:12,586; -1128
18:53:12,590; -1142
18:53:12,594; -1110
18:53:12,598; -1065
18:53:12,602; -1057
18:53:12,605; -1051
18:53:12,609; -1088
18:53:12,613; -1096
18:53:12,617; -1014
18:53:12,621; -880
18:53:12,625; -606
18:53:12,629; -210
18:53:12,633; 394
18:53:12,637; 945
18:53:12,641; 1232
18:53:12,645; 1327
18:53:12,648; 1263
18:53:12,652; 799
18:53:12,656; -125
18:53:12,660; -785
18:53:12,664; -1095
18:53:12,668; -1265
18:53:12,672; -1244
18:53:12,676; -1003
18:53:12,680; -922
18:53:12,684; -835
18:53:12,688; -1019
18:53:12,691; -1125
18:53:12,695; -1139
18:53:12,699; -1053
18:53:12,703; -1037
18:53:12,707; -1027
18:53:12,711; -982
18:53:12,715; -1042
18:53:12,719; -979
18:53:12,723; -992
18:53:12,727; -958
18:53:12,730; -974
18:53:12,734; -978
18:53:12,738; -970
18:53:12,742; -928
18:53:12,746; -968
18:53:12,750; -960
18:53:12,754; -942
18:53:12,758; -916
18:53:12,762; -906
18:53:12,766; -895
18:53:12,770; -901
18:53:12,773; -886
18:53:12,777; -894
18:53:12,781; -901
18:53:12,785; -890
18:53:12,789; -889
18:53:12,793; -872
18:53:12,797; -877
18:53:12,801; -856
18:53:12,805; -833
18:53:12,809; -824
18:53:12,813; -764
18:53:12,816; -770
18:53:12,820; -786
18:53:12,824; -793
18:53:12,828; -763
18:53:12,832; -766
18:53:12,836; -728
18:53:12,840; -705
18:53:12,844; -688
18:53:12,848; -664
18:53:12,852; -662
18:53:12,855; -647
18:53:12,859; -617
18:53:12,863; -587
18:53:12,867; -547
18:53:12,871; -548
18:53:12,875; -547
18:53:12,879; -501
18:53:12,883; -483
18:53:12,887; -470
18:53:12,891; -477
18:53:12,895; -424
18:53:12,898; -406
18:53:12,902; -421
18:53:12,906; -447
18:53:12,910; -473
18:53:12,914; -491
18:53:12,918; -512
18:53:12,922; -553
18:53:12,926; -557
18:53:12,930; -604
18:53:12,934; -630
18:53:12,938; -678
18:53:12,941; -732
18:53:12,945; -760
18:53:12,949; -746
18:53:12,953; -758
18:53:12,957; -776
18:53:12,961; -789
18:53:12,965; -803
18:53:12,969; -792
18:53:12,973; -793
18:53:12,977; -807
18:53:12,980; -815
18:53:12,984; -823
18:53:12,988; -803
18:53:12,992; -818
18:53:12,996; -803
18:53:13,000; -765
18:53:13,004; -770
18:53:13,008; -782
18:53:13,012; -748
18:53:13,016; -746
18:53:13,020; -745
18:53:13,023; -774
18:53:13,027; -781
18:53:13,031; -794
18:53:13,035; -789
18:53:13,039; -759
18:53:13,043; -739
18:53:13,047; -739
18:53:13,051; -750
18:53:13,055; -759
18:53:13,059; -743
18:53:13,063; -738
18:53:13,066; -702
18:53:13,070; -696
18:53:13,074; -708
18:53:13,078; -711
18:53:13,082; -741
18:53:13,086; -740
18:53:13,090; -783
18:53:13,094; -782
18:53:13,098; -800
18:53:13,102; -816
18:53:13,105; -796
18:53:13,109; -784
18:53:13,113; -753
18:53:13,117; -739
18:53:13,121; -739
18:53:13,125; -759
18:53:13,129; -770
18:53:13,133; -776
18:53:13,137; -751
18:53:13,141; -726
18:53:13,145; -722
18:53:13,148; -711
18:53:13,152; -681
18:53:13,156; -647
18:53:13,160; -635
18:53:13,164; -642
18:53:13,168; -611
18:53:13,172; -597
18:53:13,176; -621
18:53:13,180; -635
18:53:13,184; -606
18:53:13,188; -587
18:53:13,191; -610
18:53:13,195; -608
18:53:13,199; -599
18:53:13,203; -641
18:53:13,207; -625
18:53:13,211; -641
18:53:13,215; -664
18:53:13,219; -666
18:53:13,223; -682
18:53:13,227; -704
18:53:13,230; -718
18:53:13,234; -714
18:53:13,238; -712
18:53:13,242; -718
18:53:13,246; -729
18:53:13,250; -753
18:53:13,254; -744
18:53:13,258; -759
18:53:13,262; -748
18:53:13,266; -723
18:53:13,270; -706
18:53:13,273; -712
18:53:13,277; -713
18:53:13,281; -715
18:53:13,285; -721
18:53:13,289; -736
18:53:13,293; -749
18:53:13,297; -746
18:53:13,301; -698
18:53:13,305; -576
18:53:13,309; -291
18:53:13,313; 92
18:53:13,316; 674
18:53:13,320; 1223
18:53:13,324; 1644
18:53:13,328; 1844
18:53:13,332; 1698
18:53:13,336; 1392
18:53:13,340; 654
18:53:13,344; -85
18:53:13,348; -629
18:53:13,352; -880
18:53:13,355; -823
18:53:13,359; -778
18:53:13,363; -573
18:53:13,367; -415
18:53:13,371; -483
18:53:13,375; -584
18:53:13,379; -652
18:53:13,383; -605
18:53:13,387; -566
18:53:13,391; -589
18:53:13,395; -603
18:53:13,398; -583
18:53:13,402; -584
18:53:13,406; -568
18:53:13,410; -604
18:53:13,414; -627
18:53:13,418; -652
18:53:13,422; -622
18:53:13,426; -589
18:53:13,430; -553
18:53:13,434; -531
18:53:13,438; -539
18:53:13,441; -577
18:53:13,445; -577
18:53:13,449; -579
18:53:13,453; -578
18:53:13,457; -554
18:53:13,461; -543
18:53:13,465; -534
18:53:13,469; -533
18:53:13,473; -515
18:53:13,477; -495
18:53:13,480; -444
18:53:13,484; -431
18:53:13,488; -465
18:53:13,492; -472
18:53:13,496; -466
18:53:13,500; -426
18:53:13,504; -413
18:53:13,508; -379
18:53:13,512; -401
18:53:13,516; -404
18:53:13,520; -400
18:53:13,523; -382
18:53:13,527; -367
18:53:13,531; -327
18:53:13,535; -292
18:53:13,539; -281
18:53:13,543; -267
18:53:13,547; -244
18:53:13,551; -166
18:53:13,555; -135
18:53:13,559; -131
18:53:13,563; -131
18:53:13,566; -130
18:53:13,570; -115
18:53:13,574; -101
18:53:13,578; -86
18:53:13,582; -67
18:53:13,586; -42
18:53:13,590; -41
18:53:13,594; -76
18:53:13,598; -95
18:53:13,602; -141
18:53:13,605; -186
18:53:13,609; -238
18:53:13,613; -271
18:53:13,617; -309
18:53:13,621; -349
18:53:13,625; -363
18:53:13,629; -360
18:53:13,633; -417
18:53:13,637; -424
18:53:13,641; -462
18:53:13,645; -437
18:53:13,648; -466
18:53:13,652; -480
18:53:13,656; -461
18:53:13,660; -451
18:53:13,664; -472
18:53:13,668; -493
18:53:13,672; -486
18:53:13,676; -474
18:53:13,680; -503
18:53:13,684; -487
18:53:13,688; -451
18:53:13,691; -453
18:53:13,695; -449
18:53:13,699; -424
18:53:13,703; -428
18:53:13,707; -420
18:53:13,711; -447
18:53:13,715; -423
18:53:13,719; -441
18:53:13,723; -453
18:53:13,727; -448
18:53:13,730; -440
18:53:13,734; -434
18:53:13,738; -407
18:53:13,742; -439
18:53:13,746; -432
18:53:13,750; -422
18:53:13,754; -427
18:53:13,758; -422
18:53:13,762; -426
18:53:13,766; -424
18:53:13,770; -421
18:53:13,773; -437
18:53:13,777; -440
18:53:13,781; -446
18:53:13,785; -451
18:53:13,789; -437
18:53:13,793; -447
18:53:13,797; -418
18:53:13,801; -376
18:53:13,805; -349
18:53:13,809; -303
18:53:13,812; -364
18:53:13,816; -336
18:53:13,820; -307
18:53:13,824; -332
18:53:13,828; -355
18:53:13,832; -324
18:53:13,836; -295
18:53:13,840; -327
18:53:13,844; -353
18:53:13,848; -309
18:53:13,852; -314
18:53:13,855; -342
18:53:13,859; -330
18:53:13,863; -351
18:53:13,867; -380
18:53:13,871; -388
18:53:13,875; -417
18:53:13,879; -437
18:53:13,883; -481
18:53:13,887; -479
18:53:13,891; -472
18:53:13,895; -453
18:53:13,898; -446
18:53:13,902; -434
18:53:13,906; -422
18:53:13,910; -403
18:53:13,914; -426
18:53:13,918; -455
18:53:13,922; -476
18:53:13,926; -483
18:53:13,930; -482
18:53:13,934; -457
18:53:13,938; -451
18:53:13,941; -493
18:53:13,945; -478
18:53:13,949; -423
18:53:13,953; -345
18:53:13,957; -166
18:53:13,961; 163
18:53:13,965; 804
18:53:13,969; 1264
18:53:13,973; 1838
18:53:13,977; 2106
18:53:13,980; 2174
18:53:13,984; 1974
18:53:13,988; 1263
18:53:13,992; 494
18:53:13,996; -281
18:53:14,000; -572
18:53:14,004; -617
18:53:14,008; -634
18:53:14,012; -353
18:53:14,016; -218
18:53:14,020; -272
18:53:14,023; -363
18:53:14,027; -422
18:53:14,031; -418
18:53:14,035; -342
18:53:14,039; -284
18:53:14,043; -393
18:53:14,047; -408
18:53:14,051; -421
18:53:14,055; -397
18:53:14,059; -363
18:53:14,062; -340
18:53:14,066; -349
18:53:14,070; -339
18:53:14,074; -342
18:53:14,078; -351
18:53:14,082; -376
18:53:14,086; -351
18:53:14,090; -356
18:53:14,094; -304
18:53:14,098; -296
18:53:14,102; -319
18:53:14,105; -305
18:53:14,109; -308
18:53:14,113; -304
18:53:14,117; -279
18:53:14,121; -254
18:53:14,125; -253
18:53:14,129; -254
18:53:14,133; -256
18:53:14,137; -247
18:53:14,141; -237
18:53:14,145; -206
18:53:14,148; -166
18:53:14,152; -131
18:53:14,156; -135
18:53:14,160; -115
18:53:14,164; -159
18:53:14,168; -137
18:53:14,172; -121
18:53:14,176; -91
18:53:14,180; -69
18:53:14,184; -25
18:53:14,188; 26
18:53:14,191; 56
18:53:14,195; 32
18:53:14,199; 53
18:53:14,203; 75
18:53:14,207; 88
18:53:14,211; 125
18:53:14,215; 158
18:53:14,219; 219
18:53:14,223; 242
18:53:14,227; 270
18:53:14,230; 211
18:53:14,234; 178
18:53:14,238; 177
18:53:14,242; 121
18:53:14,246; 128
18:53:14,250; 79
18:53:14,254; 76
18:53:14,258; 5
18:53:14,262; -15
18:53:14,266; -58
18:53:14,270; -92
18:53:14,273; -129
18:53:14,277; -155
18:53:14,281; -176
18:53:14,285; -170
18:53:14,289; -205
18:53:14,293; -217
18:53:14,297; -240
18:53:14,301; -245
18:53:14,305; -231
18:53:14,309; -258
18:53:14,312; -246
18:53:14,316; -242
18:53:14,320; -228
18:53:14,324; -296
18:53:14,328; -307
18:53:14,332; -299
18:53:14,336; -281
18:53:14,340; -240
18:53:14,344; -216
18:53:14,348; -201
18:53:14,352; -176
18:53:14,355; -193
18:53:14,359; -239
18:53:14,363; -252
18:53:14,367; -261
18:53:14,371; -245
18:53:14,375; -241
18:53:14,379; -225
18:53:14,383; -204
18:53:14,387; -164
18:53:14,391; -190
18:53:14,395; -179
18:53:14,398; -165
18:53:14,402; -201
18:53:14,406; -243
18:53:14,410; -262
18:53:14,414; -261
18:53:14,418; -230
18:53:14,422; -237
18:53:14,426; -226
18:53:14,430; -178
18:53:14,434; -194
18:53:14,438; -194
18:53:14,441; -185
18:53:14,445; -171
18:53:14,449; -157
18:53:14,453; -132
18:53:14,457; -138
18:53:14,461; -146
18:53:14,465; -120
18:53:14,469; -123
18:53:14,473; -129
18:53:14,477; -120
18:53:14,480; -125
18:53:14,484; -141
18:53:14,488; -120
18:53:14,492; -124
18:53:14,496; -143
18:53:14,500; -145
18:53:14,504; -170
18:53:14,508; -198
18:53:14,512; -248
18:53:14,516; -247
18:53:14,520; -220
18:53:14,523; -236
18:53:14,527; -256
18:53:14,531; -275
18:53:14,535; -305
18:53:14,539; -309
18:53:14,543; -313
18:53:14,547; -264
18:53:14,551; -271
18:53:14,555; -258
18:53:14,559; -268
18:53:14,563; -306
18:53:14,566; -284
18:53:14,570; -304
18:53:14,574; -302
18:53:14,578; -338
18:53:14,582; -349
18:53:14,586; -317
18:53:14,590; -213
18:53:14,594; 14
18:53:14,598; 391
18:53:14,602; 923
18:53:14,605; 1442
18:53:14,609; 2002
18:53:14,613; 2328
18:53:14,617; 2411
18:53:14,621; 2310
18:53:14,625; 1699
18:53:14,629; 987
18:53:14,633; 86
18:53:14,637; -185
18:53:14,641; -388
18:53:14,645; -411
18:53:14,648; -172
18:53:14,652; -65
18:53:14,656; -96
18:53:14,660; -150
18:53:14,664; -324
18:53:14,668; -237
18:53:14,672; -211
18:53:14,676; -130
18:53:14,680; -214
18:53:14,684; -280
18:53:14,688; -245
18:53:14,691; -268
18:53:14,695; -278
18:53:14,699; -256
18:53:14,703; -216
18:53:14,707; -168
18:53:14,711; -196
18:53:14,715; -197
18:53:14,719; -185
18:53:14,723; -196
18:53:14,727; -210
18:53:14,730; -190
18:53:14,734; -200
18:53:14,738; -169
18:53:14,742; -172
18:53:14,746; -187
18:53:14,750; -151
18:53:14,754; -99
18:53:14,758; -106
18:53:14,762; -125
18:53:14,766; -111
18:53:14,770; -107
18:53:14,773; -143
18:53:14,777; -122
18:53:14,781; -97
18:53:14,785; -92
18:53:14,789; -65
18:53:14,793; -41
18:53:14,797; -38
18:53:14,801; -30
18:53:14,805; 0
18:53:14,809; 63
18:53:14,813; 94
18:53:14,816; 74
18:53:14,820; 129
18:53:14,824; 177
18:53:14,828; 135
18:53:14,832; 144
18:53:14,836; 196
18:53:14,840; 225
18:53:14,844; 278
18:53:14,848; 308
18:53:14,852; 325
18:53:14,855; 343
18:53:14,859; 356
18:53:14,863; 329
18:53:14,867; 323
18:53:14,871; 323
18:53:14,875; 326
18:53:14,879; 264
18:53:14,883; 197
18:53:14,887; 153
18:53:14,891; 123
18:53:14,895; 120
18:53:14,898; 78
18:53:14,902; 41
18:53:14,906; 30
18:53:14,910; -53
18:53:14,914; -71
18:53:14,918; -103
18:53:14,922; -146
18:53:14,926; -152
18:53:14,930; -150
18:53:14,934; -174
18:53:14,938; -143
18:53:14,941; -158
18:53:14,945; -189
18:53:14,949; -199
18:53:14,953; -195
18:53:14,957; -177
18:53:14,961; -192
18:53:14,965; -178
18:53:14,969; -180
18:53:14,973; -199
18:53:14,977; -237
18:53:14,980; -236
18:53:14,984; -200
18:53:14,988; -189
18:53:14,992; -234
18:53:14,996; -214
18:53:15,000; -193
18:53:15,004; -166
18:53:15,008; -144
18:53:15,012; -127
18:53:15,016; -167
18:53:15,020; -142
18:53:15,023; -170
18:53:15,027; -166
18:53:15,031; -202
18:53:15,035; -200
18:53:15,039; -188
18:53:15,043; -207
18:53:15,047; -164
18:53:15,051; -140
18:53:15,055; -170
18:53:15,059; -144
18:53:15,063; -170
18:53:15,066; -202
18:53:15,070; -187
18:53:15,074; -196
18:53:15,078; -191
18:53:15,082; -223
18:53:15,086; -217
18:53:15,090; -187
18:53:15,094; -138
18:53:15,098; -136
18:53:15,102; -111
18:53:15,105; -99
18:53:15,109; -123
18:53:15,113; -100
18:53:15,117; -105
18:53:15,121; -86
18:53:15,125; -59
18:53:15,129; -118
18:53:15,133; -114
18:53:15,137; -73
18:53:15,141; -158
18:53:15,145; -133
18:53:15,148; -156
18:53:15,152; -167
18:53:15,156; -203
18:53:15,160; -220
18:53:15,164; -242
18:53:15,168; -268
18:53:15,172; -285
18:53:15,176; -309
18:53:15,180; -303
18:53:15,184; -281
18:53:15,188; -259
18:53:15,191; -275
18:53:15,195; -309
18:53:15,199; -281
18:53:15,203; -274
18:53:15,207; -309
18:53:15,211; -316
18:53:15,215; -264
18:53:15,219; -269
18:53:15,223; -305
18:53:15,227; -303
18:53:15,230; -308
18:53:15,234; -298
18:53:15,238; -255
18:53:15,242; -166
18:53:15,246; 96
18:53:15,250; 623
18:53:15,254; 1015
18:53:15,258; 1710
18:53:15,262; 2178
18:53:15,266; 2357
18:53:15,270; 2418
18:53:15,273; 2166
18:53:15,277; 1455
18:53:15,281; 762
18:53:15,285; -132
18:53:15,289; -214
18:53:15,293; -391
18:53:15,297; -317
18:53:15,301; -201
18:53:15,305; -120
18:53:15,309; -118
18:53:15,312; -333
18:53:15,316; -305
18:53:15,320; -286
18:53:15,324; -254
18:53:15,328; -304
18:53:15,332; -335
18:53:15,336; -412
18:53:15,340; -350
18:53:15,344; -239
18:53:15,348; -218
18:53:15,352; -280
18:53:15,355; -281
18:53:15,359; -239
18:53:15,363; -223
18:53:15,367; -264
18:53:15,371; -259
18:53:15,375; -259
18:53:15,379; -261
18:53:15,383; -246
18:53:15,387; -211
18:53:15,391; -226
18:53:15,395; -245
18:53:15,398; -260
18:53:15,402; -283
18:53:15,406; -272
18:53:15,410; -234
18:53:15,414; -209
18:53:15,418; -176
18:53:15,422; -181
18:53:15,426; -183
18:53:15,430; -164
18:53:15,434; -183
18:53:15,438; -137
18:53:15,441; -98
18:53:15,445; -62
18:53:15,449; -37
18:53:15,453; -48
18:53:15,457; -17
18:53:15,461; -46
18:53:15,465; -5
18:53:15,469; 38
18:53:15,473; 77
18:53:15,477; 96
18:53:15,480; 126
18:53:15,484; 146
18:53:15,488; 156
18:53:15,492; 178
18:53:15,496; 237
18:53:15,500; 275
18:53:15,504; 273
18:53:15,508; 314
18:53:15,512; 369
18:53:15,516; 375
18:53:15,520; 317
18:53:15,523; 288
18:53:15,527; 242
18:53:15,531; 173
18:53:15,535; 118
18:53:15,539; 117
18:53:15,543; 82
18:53:15,547; 45
18:53:15,551; 33
18:53:15,555; -29
18:53:15,559; -65
18:53:15,562; -86
18:53:15,566; -114
18:53:15,570; -123
18:53:15,574; -122
18:53:15,578; -163
18:53:15,582; -174
18:53:15,586; -228
18:53:15,590; -237
18:53:15,594; -242
18:53:15,598; -234
18:53:15,602; -197
18:53:15,605; -183
18:53:15,609; -196
18:53:15,613; -211
18:53:15,617; -220
18:53:15,621; -247
18:53:15,625; -209
18:53:15,629; -226
18:53:15,633; -183
18:53:15,637; -193
18:53:15,641; -225
18:53:15,645; -207
18:53:15,648; -213
18:53:15,652; -216
18:53:15,656; -199
18:53:15,660; -210
18:53:15,664; -180
18:53:15,668; -186
18:53:15,672; -196
18:53:15,676; -176
18:53:15,680; -160
18:53:15,684; -173
18:53:15,688; -170
18:53:15,691; -161
18:53:15,695; -163
18:53:15,699; -154
18:53:15,703; -190
18:53:15,707; -156
18:53:15,711; -175
18:53:15,715; -203
18:53:15,719; -181
18:53:15,723; -192
18:53:15,727; -180
18:53:15,730; -180
18:53:15,734; -183
18:53:15,738; -182
18:53:15,742; -196
18:53:15,746; -193
18:53:15,750; -196
18:53:15,754; -195
18:53:15,758; -194
18:53:15,762; -221
18:53:15,766; -211
18:53:15,770; -220
18:53:15,773; -252
18:53:15,777; -225
18:53:15,781; -254
18:53:15,785; -207
18:53:15,789; -224
18:53:15,793; -231
18:53:15,797; -212
18:53:15,801; -186
18:53:15,805; -204
18:53:15,809; -202
18:53:15,812; -223
18:53:15,816; -211
18:53:15,820; -222
18:53:15,824; -214
18:53:15,828; -239
18:53:15,832; -201
18:53:15,836; -240
18:53:15,840; -276
18:53:15,844; -266
18:53:15,848; -258
18:53:15,852; -241
18:53:15,855; -237
18:53:15,859; -226
18:53:15,863; -230
18:53:15,867; -229
18:53:15,871; -232
18:53:15,875; -224
18:53:15,879; -220
18:53:15,883; -205
18:53:15,887; -225
18:53:15,891; -234
18:53:15,895; -217
18:53:15,898; -214
18:53:15,902; -197
18:53:15,906; -175
18:53:15,910; -183
18:53:15,914; -206
18:53:15,918; -239
18:53:15,922; -238
18:53:15,926; -249
18:53:15,930; -247
18:53:15,934; -240
18:53:15,938; -222
18:53:15,941; -211
18:53:15,945; -221
18:53:15,949; -216
18:53:15,953; -189
18:53:15,957; -177
18:53:15,961; -218
18:53:15,965; -230
18:53:15,969; -226
18:53:15,973; -221
18:53:15,977; -198
18:53:15,980; -166
18:53:15,984; -195
18:53:15,988; -200
18:53:15,992; -210
18:53:15,996; -225
18:53:16,000; -201
18:53:16,004; -190
18:53:16,008; -174
18:53:16,012; -171
18:53:16,016; -195
18:53:16,020; -222
18:53:16,023; -184
18:53:16,027; -192
18:53:16,031; -206
18:53:16,035; -208
18:53:16,039; -183
18:53:16,043; -197
18:53:16,047; -191
18:53:16,051; -184
18:53:16,055; -165
18:53:16,059; -170
18:53:16,063; -175
18:53:16,066; -165
18:53:16,070; -173
18:53:16,074; -161
18:53:16,078; -146
18:53:16,082; -155
18:53:16,086; -181
18:53:16,090; -182
18:53:16,094; -167
18:53:16,098; -177
18:53:16,102; -158
18:53:16,105; -103
18:53:16,109; -112
18:53:16,113; -81
18:53:16,117; -71
18:53:16,121; -79
18:53:16,125; -56
18:53:16,129; -51
18:53:16,133; -35
18:53:16,137; -37
18:53:16,141; -35
18:53:16,145; -27
18:53:16,148; -37
18:53:16,152; -44
18:53:16,156; -34
18:53:16,160; -27
18:53:16,164; -3
18:53:16,168; 7
18:53:16,172; -12
18:53:16,176; -53
18:53:16,180; -101
18:53:16,184; -142
18:53:16,188; -144
18:53:16,191; -159
18:53:16,195; -140
18:53:16,199; -123
18:53:16,203; -152
18:53:16,207; -169
18:53:16,211; -165
18:53:16,215; -151
18:53:16,219; -132
18:53:16,223; -116
18:53:16,227; -104
18:53:16,230; -104
18:53:16,234; -118
18:53:16,238; -119
18:53:16,242; -110
18:53:16,246; -59
18:53:16,250; 2
18:53:16,254; 163
18:53:16,258; 440
18:53:16,262; 1005
18:53:16,266; 1428
18:53:16,270; 2111
18:53:16,273; 2342
18:53:16,277; 2563
18:53:16,281; 2506
18:53:16,285; 1975
18:53:16,289; 1295
18:53:16,293; 453
18:53:16,297; -30
18:53:16,301; -242
18:53:16,305; -349
18:53:16,309; -152
18:53:16,313; -13
18:53:16,316; 136
18:53:16,320; -52
18:53:16,324; -89
18:53:16,328; -136
18:53:16,332; -3
18:53:16,336; -22
18:53:16,340; -7
18:53:16,344; -19
18:53:16,348; -52
18:53:16,352; -36
18:53:16,355; -43
18:53:16,359; -45
18:53:16,363; -62
18:53:16,367; -81
18:53:16,371; -28
18:53:16,375; -34
18:53:16,379; -29
18:53:16,383; -34
18:53:16,387; -47
18:53:16,391; -40
18:53:16,395; -43
18:53:16,398; -44
18:53:16,402; -1
18:53:16,406; 16
18:53:16,410; 6
18:53:16,414; 5
18:53:16,418; 13
18:53:16,422; 54
18:53:16,426; 69
18:53:16,430; 75
18:53:16,434; 113
18:53:16,438; 98
18:53:16,441; 99
18:53:16,445; 69
18:53:16,449; 88
18:53:16,453; 98
18:53:16,457; 112
18:53:16,461; 109
18:53:16,465; 136
18:53:16,469; 155
18:53:16,473; 179
18:53:16,477; 191
18:53:16,480; 218
18:53:16,484; 263
18:53:16,488; 295
18:53:16,492; 307
18:53:16,496; 340
18:53:16,500; 379
18:53:16,504; 386
18:53:16,508; 402
18:53:16,512; 433
18:53:16,516; 468
18:53:16,520; 516
18:53:16,523; 537
18:53:16,527; 579
18:53:16,531; 579
18:53:16,535; 555
18:53:16,539; 567
18:53:16,543; 583
18:53:16,547; 581
18:53:16,551; 514
18:53:16,555; 513
18:53:16,559; 491
18:53:16,563; 408
18:53:16,566; 387
18:53:16,570; 370
18:53:16,574; 348
18:53:16,578; 299
18:53:16,582; 262
18:53:16,586; 249
18:53:16,590; 234
18:53:16,594; 197
18:53:16,598; 171
18:53:16,602; 139
18:53:16,605; 127
18:53:16,609; 115
18:53:16,613; 95
18:53:16,617; 118
18:53:16,621; 102
18:53:16,625; 104
18:53:16,629; 97
18:53:16,633; 99
18:53:16,637; 116
18:53:16,641; 98
18:53:16,645; 108
18:53:16,648; 110
18:53:16,652; 104
18:53:16,656; 85
18:53:16,660; 88
18:53:16,664; 96
18:53:16,668; 85
18:53:16,672; 85
18:53:16,676; 117
18:53:16,680; 125
18:53:16,684; 129
18:53:16,688; 139
18:53:16,691; 125
18:53:16,695; 116
18:53:16,699; 111
18:53:16,703; 106
18:53:16,707; 114
18:53:16,711; 137
18:53:16,715; 122
18:53:16,719; 123
18:53:16,723; 111
18:53:16,727; 86
18:53:16,730; 88
18:53:16,734; 95
18:53:16,738; 62
18:53:16,742; 67
18:53:16,746; 56
18:53:16,750; 66
18:53:16,754; 69
18:53:16,758; 93
18:53:16,762; 95
18:53:16,766; 103
18:53:16,770; 75
18:53:16,773; 78
18:53:16,777; 80
18:53:16,781; 53
18:53:16,785; 76
18:53:16,789; 70
18:53:16,793; 40
18:53:16,797; 44
18:53:16,801; 34
18:53:16,805; 77
18:53:16,809; 70
18:53:16,813; 56
18:53:16,816; 44
18:53:16,820; 34
18:53:16,824; 27
18:53:16,828; 1
18:53:16,832; 47
18:53:16,836; 78
18:53:16,840; 53
18:53:16,844; 39
18:53:16,848; 39
18:53:16,852; 40
18:53:16,855; 47
18:53:16,859; 53
18:53:16,863; 67
18:53:16,867; 76
18:53:16,871; 59
18:53:16,875; 37
18:53:16,879; 35
18:53:16,883; 26
18:53:16,887; 56
18:53:16,891; 56
18:53:16,895; 57
18:53:16,898; 69
18:53:16,902; 66
18:53:16,906; 51
18:53:16,910; 43
18:53:16,914; 40
18:53:16,918; 58
18:53:16,922; 35
18:53:16,926; 29
18:53:16,930; 42
18:53:16,934; 58
18:53:16,938; 52
18:53:16,941; 43
18:53:16,945; 61
18:53:16,949; 57
18:53:16,953; 52
18:53:16,957; 62
18:53:16,961; 69
18:53:16,965; 81
18:53:16,969; 79
18:53:16,973; 79
18:53:16,977; 84
18:53:16,980; 69
18:53:16,984; 59
18:53:16,988; 47
18:53:16,992; 56
18:53:16,996; 71
18:53:17,000; 87
18:53:17,004; 97
18:53:17,008; 91
18:53:17,012; 75
18:53:17,016; 69
18:53:17,020; 52
18:53:17,023; 49
18:53:17,027; 52
18:53:17,031; 57
18:53:17,035; 64
18:53:17,039; 82
18:53:17,043; 100
18:53:17,047; 126
18:53:17,051; 127
18:53:17,055; 124
18:53:17,059; 155
18:53:17,062; 143
18:53:17,066; 178
18:53:17,070; 208
18:53:17,074; 236
18:53:17,078; 226
18:53:17,082; 237
18:53:17,086; 258
18:53:17,090; 235
18:53:17,094; 235
18:53:17,098; 240
18:53:17,102; 224
18:53:17,105; 217
18:53:17,109; 185
18:53:17,113; 171
18:53:17,117; 145
18:53:17,121; 143
18:53:17,125; 134
18:53:17,129; 119
18:53:17,133; 110
18:53:17,137; 118
18:53:17,141; 102
18:53:17,145; 106
18:53:17,148; 98
18:53:17,152; 106
18:53:17,156; 118
18:53:17,160; 124
18:53:17,164; 116
18:53:17,168; 128
18:53:17,172; 142
18:53:17,176; 128
18:53:17,180; 133
18:53:17,184; 148
18:53:17,188; 123
18:53:17,191; 119
18:53:17,195; 135
18:53:17,199; 181
18:53:17,203; 294
18:53:17,207; 617
18:53:17,211; 1255
18:53:17,215; 1725
18:53:17,219; 2268
18:53:17,223; 2625
18:53:17,227; 2645
18:53:17,230; 2390
18:53:17,234; 1907
18:53:17,238; 1159
18:53:17,242; 427
18:53:17,246; 173
18:53:17,250; 7
18:53:17,254; 15
18:53:17,258; 95
18:53:17,262; 298
18:53:17,266; 311
18:53:17,270; 162
18:53:17,273; 111
18:53:17,277; 199
18:53:17,281; 248
18:53:17,285; 201
18:53:17,289; 114
18:53:17,293; 96
18:53:17,297; 98
18:53:17,301; 133
18:53:17,305; 190
18:53:17,309; 171
18:53:17,312; 201
18:53:17,316; 203
18:53:17,320; 172
18:53:17,324; 171
18:53:17,328; 163
18:53:17,332; 184
18:53:17,336; 201
18:53:17,340; 194
18:53:17,344; 196
18:53:17,348; 243
18:53:17,352; 229
18:53:17,355; 216
18:53:17,359; 244
18:53:17,363; 276
18:53:17,367; 292
18:53:17,371; 283
18:53:17,375; 289
18:53:17,379; 291
18:53:17,383; 266
18:53:17,387; 310
18:53:17,391; 299
18:53:17,395; 317
18:53:17,398; 329
18:53:17,402; 322
18:53:17,406; 326
18:53:17,410; 343
18:53:17,414; 366
18:53:17,418; 402
18:53:17,422; 419
18:53:17,426; 446
18:53:17,430; 460
18:53:17,434; 484
18:53:17,438; 497
18:53:17,441; 528
18:53:17,445; 560
18:53:17,449; 610
18:53:17,453; 637
18:53:17,457; 664
18:53:17,461; 683
18:53:17,465; 713
18:53:17,469; 745
18:53:17,473; 749
18:53:17,477; 742
18:53:17,480; 729
18:53:17,484; 753
18:53:17,488; 750
18:53:17,492; 748
18:53:17,496; 737
18:53:17,500; 721
18:53:17,504; 695
18:53:17,508; 634
18:53:17,512; 597
18:53:17,516; 559
18:53:17,520; 531
18:53:17,523; 480
18:53:17,527; 424
18:53:17,531; 398
18:53:17,535; 390
18:53:17,539; 347
18:53:17,543; 337
18:53:17,547; 335
18:53:17,551; 321
18:53:17,555; 295
18:53:17,559; 282
18:53:17,563; 267
18:53:17,566; 253
18:53:17,570; 247
18:53:17,574; 243
18:53:17,578; 238
18:53:17,582; 249
18:53:17,586; 254
18:53:17,590; 257
18:53:17,594; 252
18:53:17,598; 254
18:53:17,602; 256
18:53:17,605; 250
18:53:17,609; 245
18:53:17,613; 248
18:53:17,617; 268
18:53:17,621; 272
18:53:17,625; 283
18:53:17,629; 286
18:53:17,633; 288
18:53:17,637; 292
18:53:17,641; 275
18:53:17,645; 276
18:53:17,648; 279
18:53:17,652; 306
18:53:17,656; 280
18:53:17,660; 266
18:53:17,664; 282
18:53:17,668; 262
18:53:17,672; 240
18:53:17,676; 272
18:53:17,680; 282
18:53:17,684; 259
18:53:17,688; 241
18:53:17,691; 246
18:53:17,695; 224
18:53:17,699; 223
18:53:17,703; 234
18:53:17,707; 220
18:53:17,711; 220
18:53:17,715; 216
18:53:17,719; 215
18:53:17,723; 227
18:53:17,727; 218
18:53:17,730; 226
18:53:17,734; 214
18:53:17,738; 212
18:53:17,742; 220
18:53:17,746; 237
18:53:17,750; 250
18:53:17,754; 289
18:53:17,758; 280
18:53:17,762; 245
18:53:17,766; 205
18:53:17,770; 184
18:53:17,773; 161
18:53:17,777; 160
18:53:17,781; 182
18:53:17,785; 217
18:53:17,789; 211
18:53:17,793; 219
18:53:17,797; 230
18:53:17,801; 203
18:53:17,805; 222
18:53:17,809; 237
18:53:17,813; 212
18:53:17,816; 219
18:53:17,820; 225
18:53:17,824; 224
18:53:17,828; 217
18:53:17,832; 237
18:53:17,836; 244
18:53:17,840; 258
18:53:17,844; 238
18:53:17,848; 204
18:53:17,852; 202
18:53:17,855; 203
18:53:17,859; 196
18:53:17,863; 203
18:53:17,867; 200
18:53:17,871; 220
18:53:17,875; 230
18:53:17,879; 220
18:53:17,883; 239
18:53:17,887; 238
18:53:17,891; 231
18:53:17,895; 215
18:53:17,898; 238
18:53:17,902; 238
18:53:17,906; 231
18:53:17,910; 255
18:53:17,914; 233
18:53:17,918; 200
18:53:17,922; 206
18:53:17,926; 237
18:53:17,930; 262
18:53:17,934; 248
18:53:17,938; 267
18:53:17,941; 242
18:53:17,945; 265
18:53:17,949; 262
18:53:17,953; 290
18:53:17,957; 341
18:53:17,961; 344
18:53:17,965; 354
18:53:17,969; 332
18:53:17,973; 353
18:53:17,977; 360
18:53:17,980; 364
18:53:17,984; 360
18:53:17,988; 344
18:53:17,992; 324
18:53:17,996; 299
18:53:18,000; 324
18:53:18,004; 322
18:53:18,008; 339
18:53:18,012; 346
18:53:18,016; 302
18:53:18,020; 256
18:53:18,023; 265
18:53:18,027; 233
18:53:18,031; 250
18:53:18,035; 221
18:53:18,039; 208
18:53:18,043; 203
18:53:18,047; 187
18:53:18,051; 193
18:53:18,055; 209
18:53:18,059; 246
18:53:18,063; 242
18:53:18,066; 260
18:53:18,070; 245
18:53:18,074; 216
18:53:18,078; 203
18:53:18,082; 197
18:53:18,086; 265
18:53:18,090; 397
18:53:18,094; 617
18:53:18,098; 960
18:53:18,102; 1439
18:53:18,105; 1908
18:53:18,109; 2531
18:53:18,113; 2596
18:53:18,117; 2715
18:53:18,121; 2434
18:53:18,125; 1872
18:53:18,129; 975
18:53:18,133; 379
18:53:18,137; 297
18:53:18,141; 118
18:53:18,145; 191
18:53:18,148; 308
18:53:18,152; 390
18:53:18,156; 392
18:53:18,160; 176
18:53:18,164; 204
18:53:18,168; 316
18:53:18,172; 337
18:53:18,176; 313
18:53:18,180; 304
18:53:18,184; 284
18:53:18,188; 264
18:53:18,191; 291
18:53:18,195; 283
18:53:18,199; 274
18:53:18,203; 294
18:53:18,207; 310
18:53:18,211; 337
18:53:18,215; 326
18:53:18,219; 356
18:53:18,223; 321
18:53:18,227; 303
18:53:18,230; 285
18:53:18,234; 301
18:53:18,238; 318
18:53:18,242; 318
18:53:18,246; 330
18:53:18,250; 351
18:53:18,254; 346
18:53:18,258; 356
18:53:18,262; 351
18:53:18,266; 367
18:53:18,270; 386
18:53:18,273; 397
18:53:18,277; 401
18:53:18,281; 415
18:53:18,285; 432
18:53:18,289; 438
18:53:18,293; 436
18:53:18,297; 453
18:53:18,301; 465
18:53:18,305; 486
18:53:18,309; 536
18:53:18,313; 559
18:53:18,316; 573
18:53:18,320; 584
18:53:18,324; 613
18:53:18,328; 622
18:53:18,332; 652
18:53:18,336; 656
18:53:18,340; 701
18:53:18,344; 733
18:53:18,348; 741
18:53:18,352; 778
18:53:18,355; 815
18:53:18,359; 833
18:53:18,363; 859
18:53:18,367; 866
18:53:18,371; 883
18:53:18,375; 904
18:53:18,379; 893
18:53:18,383; 879
18:53:18,387; 850
18:53:18,391; 811
18:53:18,395; 782
18:53:18,398; 750
18:53:18,402; 704
18:53:18,406; 648
18:53:18,410; 604
18:53:18,414; 550
18:53:18,418; 515
18:53:18,422; 480
18:53:18,426; 477
18:53:18,430; 470
18:53:18,434; 456
18:53:18,438; 423
18:53:18,441; 387
18:53:18,445; 362
18:53:18,449; 342
18:53:18,453; 317
18:53:18,457; 313
18:53:18,461; 325
18:53:18,465; 317
18:53:18,469; 329
18:53:18,473; 330
18:53:18,477; 341
18:53:18,480; 347
18:53:18,484; 346
18:53:18,488; 348
18:53:18,492; 333
18:53:18,496; 361
18:53:18,500; 345
18:53:18,504; 372
18:53:18,508; 388
18:53:18,512; 406
18:53:18,516; 396
18:53:18,520; 357
18:53:18,523; 344
18:53:18,527; 342
18:53:18,531; 351
18:53:18,535; 374
18:53:18,539; 367
18:53:18,543; 370
18:53:18,547; 347
18:53:18,551; 330
18:53:18,555; 342
18:53:18,559; 343
18:53:18,562; 356
18:53:18,566; 359
18:53:18,570; 330
18:53:18,574; 301
18:53:18,578; 318
18:53:18,582; 340
18:53:18,586; 354
18:53:18,590; 341
18:53:18,594; 336
18:53:18,598; 318
18:53:18,602; 307
18:53:18,605; 297
18:53:18,609; 304
18:53:18,613; 307
18:53:18,617; 312
18:53:18,621; 338
18:53:18,625; 338
18:53:18,629; 309
18:53:18,633; 276
18:53:18,637; 285
18:53:18,641; 272
18:53:18,645; 281
18:53:18,648; 289
18:53:18,652; 328
18:53:18,656; 327
18:53:18,660; 290
18:53:18,664; 265
18:53:18,668; 272
18:53:18,672; 278
18:53:18,676; 300
18:53:18,680; 304
18:53:18,684; 310
18:53:18,688; 300
18:53:18,691; 309
18:53:18,695; 273
18:53:18,699; 270
18:53:18,703; 257
18:53:18,707; 271
18:53:18,711; 290
18:53:18,715; 296
18:53:18,719; 308
18:53:18,723; 310
18:53:18,727; 326
18:53:18,730; 324
18:53:18,734; 342
18:53:18,738; 370
18:53:18,742; 418
18:53:18,746; 403
18:53:18,750; 394
18:53:18,754; 428
18:53:18,758; 454
18:53:18,762; 426
18:53:18,766; 411
18:53:18,770; 397
18:53:18,773; 383
18:53:18,777; 389
18:53:18,781; 404
18:53:18,785; 410
18:53:18,789; 391
18:53:18,793; 353
18:53:18,797; 310
18:53:18,801; 275
18:53:18,805; 295
18:53:18,809; 333
18:53:18,812; 310
18:53:18,816; 296
18:53:18,820; 265
18:53:18,824; 248
18:53:18,828; 221
18:53:18,832; 242
18:53:18,836; 246
18:53:18,840; 263
18:53:18,844; 265
18:53:18,848; 262
18:53:18,852; 247
18:53:18,855; 239
18:53:18,859; 238
18:53:18,863; 230
18:53:18,867; 212
18:53:18,871; 249
18:53:18,875; 321
18:53:18,879; 427
18:53:18,883; 624
18:53:18,887; 1086
18:53:18,891; 1568
18:53:18,895; 2178
18:53:18,898; 2632
18:53:18,902; 2825
18:53:18,906; 2655
18:53:18,910; 2331
18:53:18,914; 1624
18:53:18,918; 919
18:53:18,922; 402
18:53:18,926; 183
18:53:18,930; 131
18:53:18,934; 192
18:53:18,938; 333
18:53:18,941; 439
18:53:18,945; 385
18:53:18,949; 322
18:53:18,953; 272
18:53:18,957; 238
18:53:18,961; 267
18:53:18,965; 333
18:53:18,969; 302
18:53:18,973; 273
18:53:18,977; 315
18:53:18,980; 333
18:53:18,984; 348
18:53:18,988; 321
18:53:18,992; 335
18:53:18,996; 330
18:53:19,000; 343
18:53:19,004; 353
18:53:19,008; 345
18:53:19,012; 345
18:53:19,016; 369
18:53:19,020; 354
18:53:19,023; 333
18:53:19,027; 369
18:53:19,031; 385
18:53:19,035; 390
18:53:19,039; 388
18:53:19,043; 413
18:53:19,047; 402
18:53:19,051; 406
18:53:19,055; 411
18:53:19,059; 419
18:53:19,062; 452
18:53:19,066; 437
18:53:19,070; 460
18:53:19,074; 450
18:53:19,078; 452
18:53:19,082; 492
18:53:19,086; 512
18:53:19,090; 528
18:53:19,094; 533
18:53:19,098; 589
18:53:19,102; 599
18:53:19,105; 652
18:53:19,109; 747
18:53:19,113; 714
18:53:19,117; 657
18:53:19,121; 667
18:53:19,125; 698
18:53:19,129; 704
18:53:19,133; 801
18:53:19,137; 844
18:53:19,141; 860
18:53:19,145; 857
18:53:19,148; 853
18:53:19,152; 872
18:53:19,156; 918
18:53:19,160; 949
18:53:19,164; 955
18:53:19,168; 918
18:53:19,172; 906
18:53:19,176; 931
18:53:19,180; 883
18:53:19,184; 798
18:53:19,188; 744
18:53:19,191; 678
18:53:19,195; 630
18:53:19,199; 597
18:53:19,203; 524
18:53:19,207; 472
18:53:19,211; 444
18:53:19,215; 431
18:53:19,219; 394
18:53:19,223; 393
18:53:19,227; 426
18:53:19,230; 417
18:53:19,234; 391
18:53:19,238; 405
18:53:19,242; 420
18:53:19,246; 398
18:53:19,250; 361
18:53:19,254; 345
18:53:19,258; 355
18:53:19,262; 351
18:53:19,266; 352
18:53:19,270; 415
18:53:19,273; 387
18:53:19,277; 340
18:53:19,281; 356
18:53:19,285; 405
18:53:19,289; 372
18:53:19,293; 368
18:53:19,297; 371
18:53:19,301; 385
18:53:19,305; 401
18:53:19,309; 384
18:53:19,313; 433
18:53:19,316; 425
18:53:19,320; 398
18:53:19,324; 373
18:53:19,328; 388
18:53:19,332; 394
18:53:19,336; 385
18:53:19,340; 398
18:53:19,344; 409
18:53:19,348; 373
18:53:19,352; 389
18:53:19,355; 380
18:53:19,359; 348
18:53:19,363; 353
18:53:19,367; 360
18:53:19,371; 345
18:53:19,375; 362
18:53:19,379; 375
18:53:19,383; 380
18:53:19,387; 390
18:53:19,391; 431
18:53:19,395; 427
18:53:19,398; 441
18:53:19,402; 470
18:53:19,406; 494
18:53:19,410; 463
18:53:19,414; 493
18:53:19,418; 507
18:53:19,422; 478
18:53:19,426; 444
18:53:19,430; 478
18:53:19,434; 476
18:53:19,438; 469
18:53:19,441; 442
18:53:19,445; 441
18:53:19,449; 431
18:53:19,453; 416
18:53:19,457; 406
18:53:19,461; 377
18:53:19,465; 393
18:53:19,469; 359
18:53:19,473; 331
18:53:19,477; 375
18:53:19,480; 389
18:53:19,484; 321
18:53:19,488; 278
18:53:19,492; 267
18:53:19,496; 261
18:53:19,500; 242
18:53:19,504; 283
18:53:19,508; 297
18:53:19,512; 286
18:53:19,516; 263
18:53:19,520; 272
18:53:19,523; 286
18:53:19,527; 290
18:53:19,531; 280
18:53:19,535; 271
18:53:19,539; 334
18:53:19,543; 473
18:53:19,547; 613
18:53:19,551; 1011
18:53:19,555; 1524
18:53:19,559; 2099
18:53:19,563; 2546
18:53:19,566; 2790
18:53:19,570; 2779
18:53:19,574; 2415
18:53:19,578; 1744
18:53:19,582; 925
18:53:19,586; 349
18:53:19,590; 114
18:53:19,594; 184
18:53:19,598; 211
18:53:19,602; 419
18:53:19,605; 487
18:53:19,609; 439
18:53:19,613; 300
18:53:19,617; 277
18:53:19,621; 242
18:53:19,625; 339
18:53:19,629; 386
18:53:19,633; 334
18:53:19,637; 299
18:53:19,641; 326
18:53:19,645; 343
18:53:19,648; 325
18:53:19,652; 356
18:53:19,656; 337
18:53:19,660; 292
18:53:19,664; 358
18:53:19,668; 324
18:53:19,672; 282
18:53:19,676; 275
18:53:19,680; 310
18:53:19,684; 330
18:53:19,688; 303
18:53:19,691; 327
18:53:19,695; 343
18:53:19,699; 337
18:53:19,703; 331
18:53:19,707; 355
18:53:19,711; 377
18:53:19,715; 405
18:53:19,719; 416
18:53:19,723; 406
18:53:19,727; 384
18:53:19,730; 373
18:53:19,734; 391
18:53:19,738; 404
18:53:19,742; 427
18:53:19,746; 463
18:53:19,750; 447
18:53:19,754; 440
18:53:19,758; 439
18:53:19,762; 456
18:53:19,766; 481
18:53:19,770; 530
18:53:19,773; 591
18:53:19,777; 649
18:53:19,781; 669
18:53:19,785; 722
18:53:19,789; 737
18:53:19,793; 735
18:53:19,797; 742
18:53:19,801; 757
18:53:19,805; 778
18:53:19,809; 809
18:53:19,813; 839
18:53:19,816; 831
18:53:19,820; 853
18:53:19,824; 848
18:53:19,828; 787
18:53:19,832; 777
18:53:19,836; 770
18:53:19,840; 755
18:53:19,844; 748
18:53:19,848; 683
18:53:19,852; 626
18:53:19,855; 557
18:53:19,859; 465
18:53:19,863; 427
18:53:19,867; 412
18:53:19,871; 401
18:53:19,875; 383
18:53:19,879; 386
18:53:19,883; 362
18:53:19,887; 350
18:53:19,891; 355
18:53:19,895; 332
18:53:19,898; 301
18:53:19,902; 281
18:53:19,906; 266
18:53:19,910; 316
18:53:19,914; 282
18:53:19,918; 263
18:53:19,922; 292
18:53:19,926; 257
18:53:19,930; 234
18:53:19,934; 254
18:53:19,938; 285
18:53:19,941; 305
18:53:19,945; 307
18:53:19,949; 277
18:53:19,953; 293
18:53:19,957; 301
18:53:19,961; 314
18:53:19,965; 348
18:53:19,969; 346
18:53:19,973; 363
18:53:19,977; 337
18:53:19,980; 333
18:53:19,984; 312
18:53:19,988; 309
18:53:19,992; 335
18:53:19,996; 387
18:53:20,000; 391
18:53:20,004; 390
18:53:20,008; 400
18:53:20,012; 388
18:53:20,016; 387
18:53:20,020; 393
18:53:20,023; 422
18:53:20,027; 423
18:53:20,031; 412
18:53:20,035; 401
18:53:20,039; 396
18:53:20,043; 376
18:53:20,047; 372
18:53:20,051; 359
18:53:20,055; 353
18:53:20,059; 315
18:53:20,062; 298
18:53:20,066; 281
18:53:20,070; 240
18:53:20,074; 230
18:53:20,078; 192
18:53:20,082; 179
18:53:20,086; 147
18:53:20,090; 185
18:53:20,094; 181
18:53:20,098; 190
18:53:20,102; 194
18:53:20,105; 212
18:53:20,109; 201
18:53:20,113; 214
18:53:20,117; 203
18:53:20,121; 228
18:53:20,125; 246
18:53:20,129; 185
18:53:20,133; 128
18:53:20,137; 189
18:53:20,141; 201
18:53:20,145; 342
18:53:20,148; 599
18:53:20,152; 1043
18:53:20,156; 1642
18:53:20,160; 2202
18:53:20,164; 2534
18:53:20,168; 2800
18:53:20,172; 2615
18:53:20,176; 2236
18:53:20,180; 1507
18:53:20,184; 663
18:53:20,188; 268
18:53:20,191; -30
18:53:20,195; 69
18:53:20,199; 137
18:53:20,203; 238
18:53:20,207; 430
18:53:20,211; 308
18:53:20,215; 164
18:53:20,219; 187
18:53:20,223; 253
18:53:20,227; 255
18:53:20,230; 246
18:53:20,234; 194
18:53:20,238; 186
18:53:20,242; 191
18:53:20,246; 186
18:53:20,250; 243
18:53:20,254; 221
18:53:20,258; 223
18:53:20,262; 224
18:53:20,266; 273
18:53:20,270; 274
18:53:20,273; 234
18:53:20,277; 229
18:53:20,281; 228
18:53:20,285; 227
18:53:20,289; 214
18:53:20,293; 259
18:53:20,297; 282
18:53:20,301; 316
18:53:20,305; 340
18:53:20,309; 342
18:53:20,312; 335
18:53:20,316; 311
18:53:20,320; 273
18:53:20,324; 303
18:53:20,328; 306
18:53:20,332; 336
18:53:20,336; 344
18:53:20,340; 353
18:53:20,344; 360
18:53:20,348; 365
18:53:20,352; 379
18:53:20,355; 429
18:53:20,359; 477
18:53:20,363; 479
18:53:20,367; 466
18:53:20,371; 505
18:53:20,375; 539
18:53:20,379; 569
18:53:20,383; 622
18:53:20,387; 683
18:53:20,391; 708
18:53:20,395; 682
18:53:20,398; 657
18:53:20,402; 687
18:53:20,406; 700
18:53:20,410; 715
18:53:20,414; 741
18:53:20,418; 782
18:53:20,422; 764
18:53:20,426; 742
18:53:20,430; 720
18:53:20,434; 717
18:53:20,438; 702
18:53:20,441; 638
18:53:20,445; 566
18:53:20,449; 532
18:53:20,453; 486
18:53:20,457; 457
18:53:20,461; 442
18:53:20,465; 421
18:53:20,469; 366
18:53:20,473; 329
18:53:20,477; 296
18:53:20,480; 266
18:53:20,484; 263
18:53:20,488; 278
18:53:20,492; 269
18:53:20,496; 252
18:53:20,500; 264
18:53:20,504; 283
18:53:20,508; 253
18:53:20,512; 258
18:53:20,516; 277
18:53:20,520; 237
18:53:20,523; 229
18:53:20,527; 222
18:53:20,531; 212
18:53:20,535; 239
18:53:20,539; 249
18:53:20,543; 270
18:53:20,547; 294
18:53:20,551; 288
18:53:20,555; 274
18:53:20,559; 300
18:53:20,562; 325
18:53:20,566; 390
18:53:20,570; 394
18:53:20,574; 418
18:53:20,578; 423
18:53:20,582; 394
18:53:20,586; 367
18:53:20,590; 384
18:53:20,594; 384
18:53:20,598; 392
18:53:20,602; 387
18:53:20,605; 385
18:53:20,609; 377
18:53:20,613; 361
18:53:20,617; 366
18:53:20,621; 364
18:53:20,625; 390
18:53:20,629; 347
18:53:20,633; 270
18:53:20,637; 253
18:53:20,641; 200
18:53:20,645; 196
18:53:20,648; 204
18:53:20,652; 182
18:53:20,656; 214
18:53:20,660; 172
18:53:20,664; 156
18:53:20,668; 159
18:53:20,672; 167
18:53:20,676; 191
18:53:20,680; 189
18:53:20,684; 175
18:53:20,688; 173
18:53:20,691; 176
18:53:20,695; 181
18:53:20,699; 165
18:53:20,703; 139
18:53:20,707; 139
18:53:20,711; 176
18:53:20,715; 212
18:53:20,719; 279
18:53:20,723; 442
18:53:20,727; 808
18:53:20,730; 1592
18:53:20,734; 2174
18:53:20,738; 2680
18:53:20,742; 2837
18:53:20,746; 2872
18:53:20,750; 2384
18:53:20,754; 1384
18:53:20,758; 528
18:53:20,762; 279
18:53:20,766; 31
18:53:20,770; -31
18:53:20,773; 52
18:53:20,777; 356
18:53:20,781; 408
18:53:20,785; 207
18:53:20,789; 115
18:53:20,793; 221
18:53:20,797; 203
18:53:20,801; 165
18:53:20,805; 175
18:53:20,809; 103
18:53:20,813; 150
18:53:20,816; 195
18:53:20,820; 176
18:53:20,824; 300
18:53:20,828; 212
18:53:20,832; 185
18:53:20,836; 185
18:53:20,840; 204
18:53:20,844; 208
18:53:20,848; 204
18:53:20,852; 215
18:53:20,855; 269
18:53:20,859; 242
18:53:20,863; 247
18:53:20,867; 216
18:53:20,871; 229
18:53:20,875; 237
18:53:20,879; 211
18:53:20,883; 246
18:53:20,887; 260
18:53:20,891; 298
18:53:20,895; 318
18:53:20,898; 322
18:53:20,902; 321
18:53:20,906; 286
18:53:20,910; 291
18:53:20,914; 275
18:53:20,918; 321
18:53:20,922; 363
18:53:20,926; 386
18:53:20,930; 392
18:53:20,934; 407
18:53:20,938; 446
18:53:20,941; 470
18:53:20,945; 507
18:53:20,949; 537
18:53:20,953; 563
18:53:20,957; 570
18:53:20,961; 592
18:53:20,965; 613
18:53:20,969; 664
18:53:20,973; 691
18:53:20,977; 655
18:53:20,980; 682
18:53:20,984; 689
18:53:20,988; 697
18:53:20,992; 684
18:53:20,996; 693
18:53:21,000; 679
18:53:21,004; 663
18:53:21,008; 604
18:53:21,012; 598
18:53:21,016; 555
18:53:21,020; 481
18:53:21,023; 430
18:53:21,027; 433
18:53:21,031; 381
18:53:21,035; 323
18:53:21,039; 304
18:53:21,043; 289
18:53:21,047; 224
18:53:21,051; 215
18:53:21,055; 216
18:53:21,059; 204
18:53:21,063; 212
18:53:21,066; 178
18:53:21,070; 179
18:53:21,074; 176
18:53:21,078; 198
18:53:21,082; 214
18:53:21,086; 223
18:53:21,090; 196
18:53:21,094; 201
18:53:21,098; 179
18:53:21,102; 169
18:53:21,105; 208
18:53:21,109; 185
18:53:21,113; 181
18:53:21,117; 206
18:53:21,121; 203
18:53:21,125; 159
18:53:21,129; 174
18:53:21,133; 217
18:53:21,137; 210
18:53:21,141; 178
18:53:21,145; 230
18:53:21,148; 229
18:53:21,152; 229
18:53:21,156; 213
18:53:21,160; 241
18:53:21,164; 265
18:53:21,168; 287
18:53:21,172; 314
18:53:21,176; 339
18:53:21,180; 329
18:53:21,184; 306
18:53:21,188; 267
18:53:21,191; 289
18:53:21,195; 301
18:53:21,199; 302
18:53:21,203; 298
18:53:21,207; 289
18:53:21,211; 253
18:53:21,215; 223
18:53:21,219; 227
18:53:21,223; 218
18:53:21,227; 192
18:53:21,230; 181
18:53:21,234; 136
18:53:21,238; 130
18:53:21,242; 138
18:53:21,246; 109
18:53:21,250; 81
18:53:21,254; 94
18:53:21,258; 75
18:53:21,262; 53
18:53:21,266; 56
18:53:21,270; 113
18:53:21,273; 122
18:53:21,277; 109
18:53:21,281; 79
18:53:21,285; 55
18:53:21,289; 41
18:53:21,293; 57
18:53:21,297; 30
18:53:21,301; 17
18:53:21,305; 54
18:53:21,309; 95
18:53:21,313; 141
18:53:21,316; 231
18:53:21,320; 417
18:53:21,324; 814
18:53:21,328; 1668
18:53:21,332; 2069
18:53:21,336; 2659
18:53:21,340; 2964
18:53:21,344; 2742
18:53:21,348; 2293
18:53:21,352; 1231
18:53:21,355; 517
18:53:21,359; 167
18:53:21,363; -249
18:53:21,367; -201
18:53:21,371; 9
18:53:21,375; 214
18:53:21,379; 153
18:53:21,383; 185
18:53:21,387; 61
18:53:21,391; 25
18:53:21,395; 112
18:53:21,398; 48
18:53:21,402; 79
18:53:21,406; 102
18:53:21,410; 76
18:53:21,414; 140
18:53:21,418; 107
18:53:21,422; 125
18:53:21,426; 86
18:53:21,430; 74
18:53:21,434; 63
18:53:21,438; 40
18:53:21,441; 74
18:53:21,445; 73
18:53:21,449; 75
18:53:21,453; 113
18:53:21,457; 122
18:53:21,461; 137
18:53:21,465; 121
18:53:21,469; 81
18:53:21,473; 122
18:53:21,477; 131
18:53:21,480; 140
18:53:21,484; 204
18:53:21,488; 195
18:53:21,492; 168
18:53:21,496; 139
18:53:21,500; 162
18:53:21,504; 187
18:53:21,508; 216
18:53:21,512; 248
18:53:21,516; 250
18:53:21,520; 261
18:53:21,523; 278
18:53:21,527; 258
18:53:21,531; 302
18:53:21,535; 339
18:53:21,539; 374
18:53:21,543; 355
18:53:21,547; 400
18:53:21,551; 465
18:53:21,555; 477
18:53:21,559; 478
18:53:21,563; 549
18:53:21,566; 553
18:53:21,570; 569
18:53:21,574; 583
18:53:21,578; 602
18:53:21,582; 675
18:53:21,586; 622
18:53:21,590; 610
18:53:21,594; 627
18:53:21,598; 622
18:53:21,602; 567
18:53:21,605; 519
18:53:21,609; 490
18:53:21,613; 429
18:53:21,617; 398
18:53:21,621; 328
18:53:21,625; 299
18:53:21,629; 273
18:53:21,633; 273
18:53:21,637; 246
18:53:21,641; 200
18:53:21,645; 184
18:53:21,648; 179
18:53:21,652; 153
18:53:21,656; 136
18:53:21,660; 121
18:53:21,664; 143
18:53:21,668; 122
18:53:21,672; 86
18:53:21,676; 86
18:53:21,680; 97
18:53:21,684; 86
18:53:21,688; 107
18:53:21,691; 140
18:53:21,695; 123
18:53:21,699; 102
18:53:21,703; 95
18:53:21,707; 101
18:53:21,711; 125
18:53:21,715; 130
18:53:21,719; 137
18:53:21,723; 168
18:53:21,727; 124
18:53:21,730; 101
18:53:21,734; 86
18:53:21,738; 105
18:53:21,742; 133
18:53:21,746; 151
18:53:21,750; 120
18:53:21,754; 154
18:53:21,758; 110
18:53:21,762; 145
18:53:21,766; 149
18:53:21,770; 132
18:53:21,773; 130
18:53:21,777; 115
18:53:21,781; 121
18:53:21,785; 111
18:53:21,789; 105
18:53:21,793; 91
18:53:21,797; 86
18:53:21,801; 64
18:53:21,805; 72
18:53:21,809; 75
18:53:21,812; 86
18:53:21,816; 109
18:53:21,820; 76
18:53:21,824; 100
18:53:21,828; 101
18:53:21,832; 84
18:53:21,836; 57
18:53:21,840; 56
18:53:21,844; 56
18:53:21,848; 56
18:53:21,852; 47
18:53:21,855; 67
18:53:21,859; 80
18:53:21,863; 91
18:53:21,867; 91
18:53:21,871; 110
18:53:21,875; 143
18:53:21,879; 161
18:53:21,883; 156
18:53:21,887; 126
18:53:21,891; 137
18:53:21,895; 160
18:53:21,898; 186
18:53:21,902; 164
18:53:21,906; 189
18:53:21,910; 158
18:53:21,914; 137
18:53:21,918; 117
18:53:21,922; 97
18:53:21,926; 101
18:53:21,930; 112
18:53:21,934; 88
18:53:21,938; 46
18:53:21,941; 1
18:53:21,945; -5
18:53:21,949; 41
18:53:21,953; 14
18:53:21,957; -2
18:53:21,961; -11
18:53:21,965; -42
18:53:21,969; -66
18:53:21,973; -61
18:53:21,977; -46
18:53:21,980; -24
18:53:21,984; -12
18:53:21,988; -4
18:53:21,992; -17
18:53:21,996; 5
18:53:22,000; 1
18:53:22,004; -11
18:53:22,008; -49
18:53:22,012; -46
18:53:22,016; -23
18:53:22,020; 36
18:53:22,023; 224
18:53:22,027; 564
18:53:22,031; 1078
18:53:22,035; 1577
18:53:22,039; 2193
18:53:22,043; 2505
18:53:22,047; 2706
18:53:22,051; 2609
18:53:22,055; 2144
18:53:22,059; 1415
18:53:22,062; 682
18:53:22,066; 89
18:53:22,070; -45
18:53:22,074; -125
18:53:22,078; -116
18:53:22,082; 106
18:53:22,086; 174
18:53:22,090; 45
18:53:22,094; -32
18:53:22,098; 30
18:53:22,102; 80
18:53:22,105; 52
18:53:22,109; 31
18:53:22,113; -1
18:53:22,117; 8
18:53:22,121; 13
18:53:22,125; 78
18:53:22,129; 39
18:53:22,133; 54
18:53:22,137; 30
18:53:22,141; 15
18:53:22,145; 58
18:53:22,148; 32
18:53:22,152; 22
18:53:22,156; 43
18:53:22,160; 30
18:53:22,164; 54
18:53:22,168; 85
18:53:22,172; 108
18:53:22,176; 138
18:53:22,180; 134
18:53:22,184; 93
18:53:22,188; 85
18:53:22,191; 90
18:53:22,195; 125
18:53:22,199; 129
18:53:22,203; 161
18:53:22,207; 196
18:53:22,211; 227
18:53:22,215; 179
18:53:22,219; 175
18:53:22,223; 220
18:53:22,227; 202
18:53:22,230; 233
18:53:22,234; 243
18:53:22,238; 285
18:53:22,242; 313
18:53:22,246; 320
18:53:22,250; 340
18:53:22,254; 379
18:53:22,258; 417
18:53:22,262; 458
18:53:22,266; 461
18:53:22,270; 520
18:53:22,273; 522
18:53:22,277; 612
18:53:22,281; 616
18:53:22,285; 634
18:53:22,289; 641
18:53:22,293; 673
18:53:22,297; 659
18:53:22,301; 641
18:53:22,305; 623
18:53:22,309; 615
18:53:22,313; 572
18:53:22,316; 549
18:53:22,320; 500
18:53:22,324; 488
18:53:22,328; 441
18:53:22,332; 404
18:53:22,336; 358
18:53:22,340; 259
18:53:22,344; 255
18:53:22,348; 234
18:53:22,352; 217
18:53:22,355; 221
18:53:22,359; 223
18:53:22,363; 215
18:53:22,367; 187
18:53:22,371; 139
18:53:22,375; 137
18:53:22,379; 150
18:53:22,383; 186
18:53:22,387; 170
18:53:22,391; 162
18:53:22,395; 146
18:53:22,398; 130
18:53:22,402; 137
18:53:22,406; 141
18:53:22,410; 167
18:53:22,414; 181
18:53:22,418; 180
18:53:22,422; 157
18:53:22,426; 139
18:53:22,430; 154
18:53:22,434; 166
18:53:22,438; 164
18:53:22,441; 176
18:53:22,445; 194
18:53:22,449; 171
18:53:22,453; 145
18:53:22,457; 158
18:53:22,461; 173
18:53:22,465; 178
18:53:22,469; 178
18:53:22,473; 189
18:53:22,477; 199
18:53:22,480; 170
18:53:22,484; 187
18:53:22,488; 179
18:53:22,492; 173
18:53:22,496; 203
18:53:22,500; 218
18:53:22,504; 220
18:53:22,508; 177
18:53:22,512; 176
18:53:22,516; 170
18:53:22,520; 136
18:53:22,523; 151
18:53:22,527; 161
18:53:22,531; 188
18:53:22,535; 173
18:53:22,539; 145
18:53:22,543; 160
18:53:22,547; 136
18:53:22,551; 158
18:53:22,555; 173
18:53:22,559; 152
18:53:22,563; 153
18:53:22,566; 140
18:53:22,570; 135
18:53:22,574; 154
18:53:22,578; 121
18:53:22,582; 125
18:53:22,586; 170
18:53:22,590; 174
18:53:22,594; 154
18:53:22,598; 156
18:53:22,602; 157
18:53:22,605; 123
18:53:22,609; 116
18:53:22,613; 145
18:53:22,617; 149
18:53:22,621; 139
18:53:22,625; 146
18:53:22,629; 123
18:53:22,633; 88
18:53:22,637; 102
18:53:22,641; 113
18:53:22,645; 148
18:53:22,648; 126
18:53:22,652; 126
18:53:22,656; 129
18:53:22,660; 120
18:53:22,664; 109
18:53:22,668; 129
18:53:22,672; 152
18:53:22,676; 158
18:53:22,680; 177
18:53:22,684; 164
18:53:22,688; 155
18:53:22,691; 138
18:53:22,695; 131
18:53:22,699; 91
18:53:22,703; 106
18:53:22,707; 106
18:53:22,711; 106
18:53:22,715; 109
18:53:22,719; 121
18:53:22,723; 122
18:53:22,727; 115
18:53:22,730; 124
18:53:22,734; 141
18:53:22,738; 138
18:53:22,742; 155
18:53:22,746; 131
18:53:22,750; 130
18:53:22,754; 154
18:53:22,758; 136
18:53:22,762; 119
18:53:22,766; 135
18:53:22,770; 134
18:53:22,773; 127
18:53:22,777; 135
18:53:22,781; 149
18:53:22,785; 147
18:53:22,789; 162
18:53:22,793; 188
18:53:22,797; 147
18:53:22,801; 101
18:53:22,805; 97
18:53:22,809; 88
18:53:22,813; 73
18:53:22,816; 98
18:53:22,820; 141
18:53:22,824; 162
18:53:22,828; 148
18:53:22,832; 151
18:53:22,836; 158
18:53:22,840; 155
18:53:22,844; 153
18:53:22,848; 148
18:53:22,852; 143
18:53:22,855; 118
18:53:22,859; 108
18:53:22,863; 132
18:53:22,867; 157
18:53:22,871; 137
18:53:22,875; 176
18:53:22,879; 192
18:53:22,883; 172
18:53:22,887; 136
18:53:22,891; 120
18:53:22,895; 122
18:53:22,898; 132
18:53:22,902; 129
18:53:22,906; 176
18:53:22,910; 184
18:53:22,914; 181
18:53:22,918; 160
18:53:22,922; 145
18:53:22,926; 143
18:53:22,930; 128
18:53:22,934; 138
18:53:22,938; 123
18:53:22,941; 138
18:53:22,945; 181
18:53:22,949; 171
18:53:22,953; 166
18:53:22,957; 169
18:53:22,961; 202
18:53:22,965; 186
18:53:22,969; 192
18:53:22,973; 225
18:53:22,977; 226
18:53:22,980; 212
18:53:22,984; 240
18:53:22,988; 262
18:53:22,992; 270
18:53:22,996; 297
18:53:23,000; 301
18:53:23,004; 307
18:53:23,008; 288
18:53:23,012; 308
18:53:23,016; 290
18:53:23,020; 292
18:53:23,023; 272
18:53:23,027; 268
18:53:23,031; 252
18:53:23,035; 230
18:53:23,039; 243
18:53:23,043; 217
18:53:23,047; 197
18:53:23,051; 193
18:53:23,055; 193
18:53:23,059; 193
18:53:23,063; 181
18:53:23,066; 178
18:53:23,070; 211
18:53:23,074; 214
18:53:23,078; 183
18:53:23,082; 192
18:53:23,086; 177
18:53:23,090; 161
18:53:23,094; 145
18:53:23,098; 182
18:53:23,102; 178
18:53:23,105; 157
18:53:23,109; 173
18:53:23,113; 211
18:53:23,117; 250
18:53:23,121; 387
18:53:23,125; 727
18:53:23,129; 1267
18:53:23,133; 1799
18:53:23,137; 2361
18:53:23,141; 2791
18:53:23,145; 2855
18:53:23,148; 2696
18:53:23,152; 2210
18:53:23,156; 1450
18:53:23,160; 530
18:53:23,164; 273
18:53:23,168; 90
18:53:23,172; 69
18:53:23,176; 133
18:53:23,180; 400
18:53:23,184; 443
18:53:23,188; 262
18:53:23,191; 186
18:53:23,195; 188
18:53:23,199; 262
18:53:23,203; 262
18:53:23,207; 194
18:53:23,211; 189
18:53:23,215; 184
18:53:23,219; 257
18:53:23,223; 237
18:53:23,227; 224
18:53:23,230; 250
18:53:23,234; 244
18:53:23,238; 234
18:53:23,242; 216
18:53:23,246; 235
18:53:23,250; 249
18:53:23,254; 257
18:53:23,258; 257
18:53:23,262; 284
18:53:23,266; 284
18:53:23,270; 286
18:53:23,273; 276
18:53:23,277; 275
18:53:23,281; 284
18:53:23,285; 282
18:53:23,289; 304
18:53:23,293; 341
18:53:23,297; 352
18:53:23,301; 342
18:53:23,305; 344
18:53:23,309; 334
18:53:23,312; 361
18:53:23,316; 394
18:53:23,320; 416
18:53:23,324; 456
18:53:23,328; 418
18:53:23,332; 440
18:53:23,336; 474
18:53:23,340; 469
18:53:23,344; 480
18:53:23,348; 514
18:53:23,352; 540
18:53:23,355; 547
18:53:23,359; 570
18:53:23,363; 625
18:53:23,367; 628
18:53:23,371; 644
18:53:23,375; 686
18:53:23,379; 711
18:53:23,383; 757
18:53:23,387; 782
18:53:23,391; 809
18:53:23,395; 844
18:53:23,398; 845
18:53:23,402; 842
18:53:23,406; 874
18:53:23,410; 867
18:53:23,414; 827
18:53:23,418; 796
18:53:23,422; 779
18:53:23,426; 778
18:53:23,430; 732
18:53:23,434; 729
18:53:23,438; 662
18:53:23,441; 620
18:53:23,445; 576
18:53:23,449; 540
18:53:23,453; 513
18:53:23,457; 510
18:53:23,461; 493
18:53:23,465; 458
18:53:23,469; 417
18:53:23,473; 391
18:53:23,477; 395
18:53:23,480; 375
18:53:23,484; 377
18:53:23,488; 391
18:53:23,492; 377
18:53:23,496; 353
18:53:23,500; 371
18:53:23,504; 367
18:53:23,508; 360
18:53:23,512; 372
18:53:23,516; 376
18:53:23,520; 381
18:53:23,523; 374
18:53:23,527; 393
18:53:23,531; 395
18:53:23,535; 380
18:53:23,539; 410
18:53:23,543; 417
18:53:23,547; 395
18:53:23,551; 396
18:53:23,555; 412
18:53:23,559; 408
18:53:23,562; 390
18:53:23,566; 370
18:53:23,570; 408
18:53:23,574; 399
18:53:23,578; 363
18:53:23,582; 393
18:53:23,586; 391
18:53:23,590; 393
18:53:23,594; 383
18:53:23,598; 388
18:53:23,602; 394
18:53:23,605; 357
18:53:23,609; 352
18:53:23,613; 349
18:53:23,617; 356
18:53:23,621; 372
18:53:23,625; 370
18:53:23,629; 359
18:53:23,633; 332
18:53:23,637; 338
18:53:23,641; 314
18:53:23,645; 338
18:53:23,648; 354
18:53:23,652; 350
18:53:23,656; 358
18:53:23,660; 336
18:53:23,664; 333
18:53:23,668; 324
18:53:23,672; 334
18:53:23,676; 339
18:53:23,680; 313
18:53:23,684; 335
18:53:23,688; 321
18:53:23,691; 352
18:53:23,695; 344
18:53:23,699; 322
18:53:23,703; 350
18:53:23,707; 327
18:53:23,711; 290
18:53:23,715; 292
18:53:23,719; 281
18:53:23,723; 301
18:53:23,727; 301
18:53:23,730; 303
18:53:23,734; 320
18:53:23,738; 315
18:53:23,742; 329
18:53:23,746; 351
18:53:23,750; 312
18:53:23,754; 317
18:53:23,758; 297
18:53:23,762; 306
18:53:23,766; 333
18:53:23,770; 340
18:53:23,773; 373
18:53:23,777; 356
18:53:23,781; 327
18:53:23,785; 288
18:53:23,789; 281
18:53:23,793; 304
18:53:23,797; 319
18:53:23,801; 335
18:53:23,805; 337
18:53:23,809; 318
18:53:23,812; 313
18:53:23,816; 337
18:53:23,820; 331
18:53:23,824; 323
18:53:23,828; 333
18:53:23,832; 331
18:53:23,836; 292
18:53:23,840; 293
18:53:23,844; 299
18:53:23,848; 310
18:53:23,852; 316
18:53:23,855; 339
18:53:23,859; 314
18:53:23,863; 321
18:53:23,867; 298
18:53:23,871; 314
18:53:23,875; 305
18:53:23,879; 316
18:53:23,883; 344
18:53:23,887; 353
18:53:23,891; 351
18:53:23,895; 329
18:53:23,898; 307
18:53:23,902; 308
18:53:23,906; 308
18:53:23,910; 289
18:53:23,914; 313
18:53:23,918; 322
18:53:23,922; 312
18:53:23,926; 328
18:53:23,930; 319
18:53:23,934; 331
18:53:23,938; 327
18:53:23,941; 333
18:53:23,945; 342
18:53:23,949; 328
18:53:23,953; 331
18:53:23,957; 345
18:53:23,961; 377
18:53:23,965; 395
18:53:23,969; 429
18:53:23,973; 449
18:53:23,977; 470
18:53:23,980; 479
18:53:23,984; 479
18:53:23,988; 444
18:53:23,992; 446
18:53:23,996; 423
18:53:24,000; 392
18:53:24,004; 387
18:53:24,008; 419
18:53:24,012; 406
18:53:24,016; 425
18:53:24,020; 457
18:53:24,023; 414
18:53:24,027; 353
18:53:24,031; 314
18:53:24,035; 288
18:53:24,039; 250
18:53:24,043; 279
18:53:24,047; 282
18:53:24,051; 323
18:53:24,055; 327
18:53:24,059; 304
18:53:24,063; 320
18:53:24,066; 321
18:53:24,070; 348
18:53:24,074; 363
18:53:24,078; 343
18:53:24,082; 319
18:53:24,086; 265
18:53:24,090; 269
18:53:24,094; 315
18:53:24,098; 375
18:53:24,102; 564
18:53:24,105; 788
18:53:24,109; 1245
18:53:24,113; 1792
18:53:24,117; 2323
18:53:24,121; 2754
18:53:24,125; 2970
18:53:24,129; 2726
18:53:24,133; 2331
18:53:24,137; 1582
18:53:24,141; 850
18:53:24,145; 330
18:53:24,148; 261
18:53:24,152; 205
18:53:24,156; 300
18:53:24,160; 463
18:53:24,164; 468
18:53:24,168; 405
18:53:24,172; 311
18:53:24,176; 318
18:53:24,180; 353
18:53:24,184; 409
18:53:24,188; 404
18:53:24,191; 340
18:53:24,195; 351
18:53:24,199; 372
18:53:24,203; 411
18:53:24,207; 394
18:53:24,211; 401
18:53:24,215; 384
18:53:24,219; 347
18:53:24,223; 349
18:53:24,227; 354
18:53:24,230; 368
18:53:24,234; 389
18:53:24,238; 411
18:53:24,242; 417
18:53:24,246; 417
18:53:24,250; 420
18:53:24,254; 415
18:53:24,258; 404
18:53:24,262; 426
18:53:24,266; 438
18:53:24,270; 461
18:53:24,273; 456
18:53:24,277; 433
18:53:24,281; 453
18:53:24,285; 458
18:53:24,289; 495
18:53:24,293; 500
18:53:24,297; 545
18:53:24,301; 535
18:53:24,305; 546
18:53:24,309; 547
18:53:24,313; 544
18:53:24,316; 566
18:53:24,320; 594
18:53:24,324; 602
18:53:24,328; 609
18:53:24,332; 644
18:53:24,336; 687
18:53:24,340; 704
18:53:24,344; 734
18:53:24,348; 776
18:53:24,352; 807
18:53:24,355; 825
18:53:24,359; 843
18:53:24,363; 859
18:53:24,367; 886
18:53:24,371; 904
18:53:24,375; 925
18:53:24,379; 914
18:53:24,383; 926
18:53:24,387; 931
18:53:24,391; 926
18:53:24,395; 940
18:53:24,398; 896
18:53:24,402; 860
18:53:24,406; 822
18:53:24,410; 771
18:53:24,414; 715
18:53:24,418; 676
18:53:24,422; 645
18:53:24,426; 598
18:53:24,430; 566
18:53:24,434; 540
18:53:24,438; 515
18:53:24,441; 486
18:53:24,445; 470
18:53:24,449; 421
18:53:24,453; 406
18:53:24,457; 409
18:53:24,461; 414
18:53:24,465; 407
18:53:24,469; 387
18:53:24,473; 403
18:53:24,477; 381
18:53:24,480; 365
18:53:24,484; 416
18:53:24,488; 404
18:53:24,492; 383
18:53:24,496; 390
18:53:24,500; 394
18:53:24,504; 386
18:53:24,508; 385
18:53:24,512; 392
18:53:24,516; 397
18:53:24,520; 394
18:53:24,523; 404
18:53:24,527; 421
18:53:24,531; 442
18:53:24,535; 433
18:53:24,539; 438
18:53:24,543; 419
18:53:24,547; 401
18:53:24,551; 409
18:53:24,555; 425
18:53:24,559; 412
18:53:24,563; 407
18:53:24,566; 397
18:53:24,570; 390
18:53:24,574; 397
18:53:24,578; 390
18:53:24,582; 418
18:53:24,586; 421
18:53:24,590; 414
18:53:24,594; 414
18:53:24,598; 384
18:53:24,602; 377
18:53:24,605; 354
18:53:24,609; 335
18:53:24,613; 344
18:53:24,617; 326
18:53:24,621; 346
18:53:24,625; 350
18:53:24,629; 364
18:53:24,633; 341
18:53:24,637; 352
18:53:24,641; 376
18:53:24,645; 384
18:53:24,648; 351
18:53:24,652; 333
18:53:24,656; 346
18:53:24,660; 321
18:53:24,664; 306
18:53:24,668; 303
18:53:24,672; 330
18:53:24,676; 351
18:53:24,680; 336
18:53:24,684; 350
18:53:24,688; 350
18:53:24,691; 335
18:53:24,695; 319
18:53:24,699; 292
18:53:24,703; 308
18:53:24,707; 331
18:53:24,711; 328
18:53:24,715; 316
18:53:24,719; 314
18:53:24,723; 289
18:53:24,727; 297
18:53:24,730; 301
18:53:24,734; 332
18:53:24,738; 353
18:53:24,742; 345
18:53:24,746; 341
18:53:24,750; 311
18:53:24,754; 297
18:53:24,758; 288
18:53:24,762; 299
18:53:24,766; 271
18:53:24,770; 311
18:53:24,773; 329
18:53:24,777; 309
18:53:24,781; 326
18:53:24,785; 322
18:53:24,789; 309
18:53:24,793; 276
18:53:24,797; 266
18:53:24,801; 269
18:53:24,805; 284
18:53:24,809; 288
18:53:24,813; 304
18:53:24,816; 312
18:53:24,820; 317
18:53:24,824; 338
18:53:24,828; 337
18:53:24,832; 318
18:53:24,836; 300
18:53:24,840; 310
18:53:24,844; 275
18:53:24,848; 277
18:53:24,852; 271
18:53:24,855; 301
18:53:24,859; 264
18:53:24,863; 268
18:53:24,867; 266
18:53:24,871; 287
18:53:24,875; 307
18:53:24,879; 316
18:53:24,883; 330
18:53:24,887; 316
18:53:24,891; 324
18:53:24,895; 309
18:53:24,898; 322
18:53:24,902; 321
18:53:24,906; 258
18:53:24,910; 292
18:53:24,914; 293
18:53:24,918; 281
18:53:24,922; 306
18:53:24,926; 335
18:53:24,930; 364
18:53:24,934; 367
18:53:24,938; 365
18:53:24,941; 400
18:53:24,945; 407
18:53:24,949; 393
18:53:24,953; 413
18:53:24,957; 441
18:53:24,961; 465
18:53:24,965; 444
18:53:24,969; 473
18:53:24,973; 459
18:53:24,977; 414
18:53:24,980; 405
18:53:24,984; 427
18:53:24,988; 380
18:53:24,992; 352
18:53:24,996; 353
18:53:25,000; 321
18:53:25,004; 302
18:53:25,008; 298
18:53:25,012; 307
18:53:25,016; 308
18:53:25,020; 292
18:53:25,023; 286
18:53:25,027; 304
18:53:25,031; 324
18:53:25,035; 316
18:53:25,039; 291
18:53:25,043; 295
18:53:25,047; 293
18:53:25,051; 295
18:53:25,055; 300
18:53:25,059; 314
18:53:25,062; 313
18:53:25,066; 276
18:53:25,070; 295
18:53:25,074; 370
18:53:25,078; 506
18:53:25,082; 806
18:53:25,086; 1218
18:53:25,090; 1762
18:53:25,094; 2295
18:53:25,098; 2683
18:53:25,102; 2745
18:53:25,105; 2702
18:53:25,109; 2221
18:53:25,113; 1480
18:53:25,117; 747
18:53:25,121; 324
18:53:25,125; 175
18:53:25,129; 139
18:53:25,133; 305
18:53:25,137; 391
18:53:25,141; 481
18:53:25,145; 431
18:53:25,148; 323
18:53:25,152; 332
18:53:25,156; 424
18:53:25,160; 378
18:53:25,164; 376
18:53:25,168; 277
18:53:25,172; 281
18:53:25,176; 306
18:53:25,180; 338
18:53:25,184; 339
18:53:25,188; 317
18:53:25,191; 340
18:53:25,195; 315
18:53:25,199; 317
18:53:25,203; 330
18:53:25,207; 339
18:53:25,211; 349
18:53:25,215; 381
18:53:25,219; 372
18:53:25,223; 375
18:53:25,227; 374
18:53:25,230; 387
18:53:25,234; 383
18:53:25,238; 391
18:53:25,242; 418
18:53:25,246; 435
18:53:25,250; 441
18:53:25,254; 443
18:53:25,258; 455
18:53:25,262; 427
18:53:25,266; 430
18:53:25,270; 459
18:53:25,273; 458
18:53:25,277; 463
18:53:25,281; 470
18:53:25,285; 499
18:53:25,289; 510
18:53:25,293; 519
18:53:25,297; 548
18:53:25,301; 571
18:53:25,305; 605
18:53:25,309; 660
18:53:25,312; 670
18:53:25,316; 698
18:53:25,320; 719
18:53:25,324; 734
18:53:25,328; 763
18:53:25,332; 791
18:53:25,336; 831
18:53:25,340; 831
18:53:25,344; 850
18:53:25,348; 869
18:53:25,352; 898
18:53:25,355; 928
18:53:25,359; 936
18:53:25,363; 962
18:53:25,367; 937
18:53:25,371; 901
18:53:25,375; 858
18:53:25,379; 848
18:53:25,383; 846
18:53:25,387; 783
18:53:25,391; 703
18:53:25,395; 670
18:53:25,398; 609
18:53:25,402; 598
18:53:25,406; 554
18:53:25,410; 545
18:53:25,414; 500
18:53:25,418; 482
18:53:25,422; 417
18:53:25,426; 399
18:53:25,430; 381
18:53:25,434; 363
18:53:25,438; 364
18:53:25,441; 367
18:53:25,445; 336
18:53:25,449; 336
18:53:25,453; 328
18:53:25,457; 360
18:53:25,461; 346
18:53:25,465; 340
18:53:25,469; 344
18:53:25,473; 356
18:53:25,477; 363
18:53:25,480; 368
18:53:25,484; 375
18:53:25,488; 377
18:53:25,492; 372
18:53:25,496; 384
18:53:25,500; 366
18:53:25,504; 350
18:53:25,508; 379
18:53:25,512; 385
18:53:25,516; 350
18:53:25,520; 364
18:53:25,523; 353
18:53:25,527; 338
18:53:25,531; 353
18:53:25,535; 373
18:53:25,539; 392
18:53:25,543; 391
18:53:25,547; 368
18:53:25,551; 348
18:53:25,555; 351
18:53:25,559; 319
18:53:25,563; 323
18:53:25,566; 339
18:53:25,570; 348
18:53:25,574; 365
18:53:25,578; 335
18:53:25,582; 315
18:53:25,586; 313
18:53:25,590; 297
18:53:25,594; 293
18:53:25,598; 286
18:53:25,602; 321
18:53:25,605; 315
18:53:25,609; 319
18:53:25,613; 310
18:53:25,617; 308
18:53:25,621; 311
18:53:25,625; 298
18:53:25,629; 286
18:53:25,633; 281
18:53:25,637; 269
18:53:25,641; 283
18:53:25,645; 277
18:53:25,648; 276
18:53:25,652; 274
18:53:25,656; 256
18:53:25,660; 265
18:53:25,664; 286
18:53:25,668; 289
18:53:25,672; 281
18:53:25,676; 296
18:53:25,680; 268
18:53:25,684; 275
18:53:25,688; 265
18:53:25,691; 264
18:53:25,695; 258
18:53:25,699; 281
18:53:25,703; 293
18:53:25,707; 265
18:53:25,711; 257
18:53:25,715; 251
18:53:25,719; 235
18:53:25,723; 244
18:53:25,727; 246
18:53:25,730; 251
18:53:25,734; 275
18:53:25,738; 272
18:53:25,742; 273
18:53:25,746; 266
18:53:25,750; 258
18:53:25,754; 265
18:53:25,758; 242
18:53:25,762; 235
18:53:25,766; 239
18:53:25,770; 268
18:53:25,773; 270
18:53:25,777; 261
18:53:25,781; 259
18:53:25,785; 262
18:53:25,789; 239
18:53:25,793; 256
18:53:25,797; 254
18:53:25,801; 238
18:53:25,805; 234
18:53:25,809; 259
18:53:25,813; 250
18:53:25,816; 261
18:53:25,820; 285
18:53:25,824; 245
18:53:25,828; 236
18:53:25,832; 236
18:53:25,836; 245
18:53:25,840; 251
18:53:25,844; 251
18:53:25,848; 266
18:53:25,852; 245
18:53:25,855; 243
18:53:25,859; 228
18:53:25,863; 225
18:53:25,867; 243
18:53:25,871; 249
18:53:25,875; 279
18:53:25,879; 272
18:53:25,883; 257
18:53:25,887; 240
18:53:25,891; 241
18:53:25,895; 223
18:53:25,898; 247
18:53:25,902; 277
18:53:25,906; 316
18:53:25,910; 320
18:53:25,914; 297
18:53:25,918; 294
18:53:25,922; 305
18:53:25,926; 326
18:53:25,930; 336
18:53:25,934; 367
18:53:25,938; 395
18:53:25,941; 432
18:53:25,945; 426
18:53:25,949; 415
18:53:25,953; 390
18:53:25,957; 341
18:53:25,961; 334
18:53:25,965; 341
18:53:25,969; 358
18:53:25,973; 360
18:53:25,977; 346
18:53:25,980; 302
18:53:25,984; 249
18:53:25,988; 230
18:53:25,992; 239
18:53:25,996; 251
18:53:26,000; 258
18:53:26,004; 248
18:53:26,008; 224
18:53:26,012; 213
18:53:26,016; 215
18:53:26,020; 237
18:53:26,023; 234
18:53:26,027; 208
18:53:26,031; 220
18:53:26,035; 206
18:53:26,039; 208
18:53:26,043; 238
18:53:26,047; 231
18:53:26,051; 233
18:53:26,055; 285
18:53:26,059; 342
18:53:26,063; 497
18:53:26,066; 893
18:53:26,070; 1407
18:53:26,074; 1911
18:53:26,078; 2415
18:53:26,082; 2686
18:53:26,086; 2660
18:53:26,090; 2422
18:53:26,094; 1796
18:53:26,098; 1124
18:53:26,102; 451
18:53:26,105; 224
18:53:26,109; 121
18:53:26,113; 158
18:53:26,117; 319
18:53:26,121; 452
18:53:26,125; 400
18:53:26,129; 321
18:53:26,133; 260
18:53:26,137; 294
18:53:26,141; 325
18:53:26,145; 307
18:53:26,148; 252
18:53:26,152; 276
18:53:26,156; 260
18:53:26,160; 260
18:53:26,164; 263
18:53:26,168; 278
18:53:26,172; 265
18:53:26,176; 255
18:53:26,180; 291
18:53:26,184; 323
18:53:26,188; 306
18:53:26,191; 279
18:53:26,195; 291
18:53:26,199; 290
18:53:26,203; 291
18:53:26,207; 310
18:53:26,211; 304
18:53:26,215; 321
18:53:26,219; 327
18:53:26,223; 337
18:53:26,227; 336
18:53:26,230; 367
18:53:26,234; 380
18:53:26,238; 364
18:53:26,242; 350
18:53:26,246; 362
18:53:26,250; 385
18:53:26,254; 398
18:53:26,258; 401
18:53:26,262; 431
18:53:26,266; 472
18:53:26,270; 463
18:53:26,273; 467
18:53:26,277; 493
18:53:26,281; 503
18:53:26,285; 483
18:53:26,289; 526
18:53:26,293; 547
18:53:26,297; 584
18:53:26,301; 623
18:53:26,305; 661
18:53:26,309; 666
18:53:26,313; 708
18:53:26,316; 732
18:53:26,320; 778
18:53:26,324; 818
18:53:26,328; 838
18:53:26,332; 814
18:53:26,336; 822
18:53:26,340; 844
18:53:26,344; 853
18:53:26,348; 853
18:53:26,352; 884
18:53:26,355; 864
18:53:26,359; 861
18:53:26,363; 815
18:53:26,367; 766
18:53:26,371; 698
18:53:26,375; 667
18:53:26,379; 581
18:53:26,383; 511
18:53:26,387; 507
18:53:26,391; 505
18:53:26,395; 449
18:53:26,398; 395
18:53:26,402; 380
18:53:26,406; 343
18:53:26,410; 331
18:53:26,414; 319
18:53:26,418; 315
18:53:26,422; 317
18:53:26,426; 308
18:53:26,430; 291
18:53:26,434; 275
18:53:26,438; 300
18:53:26,441; 284
18:53:26,445; 252
18:53:26,449; 265
18:53:26,453; 275
18:53:26,457; 273
18:53:26,461; 293
18:53:26,465; 289
18:53:26,469; 282
18:53:26,473; 288
18:53:26,477; 294
18:53:26,480; 306
18:53:26,484; 275
18:53:26,488; 296
18:53:26,492; 289
18:53:26,496; 277
18:53:26,500; 281
18:53:26,504; 294
18:53:26,508; 310
18:53:26,512; 293
18:53:26,516; 271
18:53:26,520; 277
18:53:26,523; 289
18:53:26,527; 300
18:53:26,531; 267
18:53:26,535; 283
18:53:26,539; 283
18:53:26,543; 260
18:53:26,547; 264
18:53:26,551; 299
18:53:26,555; 315
18:53:26,559; 266
18:53:26,562; 243
18:53:26,566; 260
18:53:26,570; 262
18:53:26,574; 232
18:53:26,578; 204
18:53:26,582; 226
18:53:26,586; 201
18:53:26,590; 185
18:53:26,594; 188
18:53:26,598; 208
18:53:26,602; 214
18:53:26,605; 205
18:53:26,609; 195
18:53:26,613; 195
18:53:26,617; 197
18:53:26,621; 204
18:53:26,625; 201
18:53:26,629; 194
18:53:26,633; 225
18:53:26,637; 241
18:53:26,641; 264
18:53:26,645; 230
18:53:26,648; 210
18:53:26,652; 227
18:53:26,656; 235
18:53:26,660; 235
18:53:26,664; 253
18:53:26,668; 217
18:53:26,672; 151
18:53:26,676; 100
18:53:26,680; 107
18:53:26,684; 113
18:53:26,688; 155
18:53:26,691; 185
18:53:26,695; 201
18:53:26,699; 173
18:53:26,703; 161
18:53:26,707; 161
18:53:26,711; 178
18:53:26,715; 193
18:53:26,719; 173
18:53:26,723; 204
18:53:26,727; 195
18:53:26,730; 173
18:53:26,734; 170
18:53:26,738; 204
18:53:26,742; 163
18:53:26,746; 168
18:53:26,750; 212
18:53:26,754; 211
18:53:26,758; 203
18:53:26,762; 177
18:53:26,766; 141
18:53:26,770; 122
18:53:26,773; 110
18:53:26,777; 92
18:53:26,781; 146
18:53:26,785; 173
18:53:26,789; 171
18:53:26,793; 166
18:53:26,797; 147
18:53:26,801; 154
18:53:26,805; 146
18:53:26,809; 146
18:53:26,812; 148
18:53:26,816; 150
18:53:26,820; 161
18:53:26,824; 161
18:53:26,828; 167
18:53:26,832; 220
18:53:26,836; 224
18:53:26,840; 214
18:53:26,844; 224
18:53:26,848; 215
18:53:26,852; 199
18:53:26,855; 204
18:53:26,859; 226
18:53:26,863; 273
18:53:26,867; 267
18:53:26,871; 278
18:53:26,875; 269
18:53:26,879; 255
18:53:26,883; 254
18:53:26,887; 234
18:53:26,891; 247
18:53:26,895; 251
18:53:26,898; 245
18:53:26,902; 267
18:53:26,906; 221
18:53:26,910; 175
18:53:26,914; 142
18:53:26,918; 120
18:53:26,922; 101
18:53:26,926; 144
18:53:26,930; 151
18:53:26,934; 174
18:53:26,938; 167
18:53:26,941; 145
18:53:26,945; 151
18:53:26,949; 127
18:53:26,953; 101
18:53:26,957; 74
18:53:26,961; 84
18:53:26,965; 70
18:53:26,969; 100
18:53:26,973; 106
18:53:26,977; 100
18:53:26,980; 100
18:53:26,984; 135
18:53:26,988; 274
18:53:26,992; 570
18:53:26,996; 1008
18:53:27,000; 1544
18:53:27,004; 2110
18:53:27,008; 2567
18:53:27,012; 2664
18:53:27,016; 2614
18:53:27,020; 2249
18:53:27,023; 1516
18:53:27,027; 819
18:53:27,031; 132
18:53:27,035; 32
18:53:27,039; -132
18:53:27,043; 54
18:53:27,047; 151
18:53:27,051; 255
18:53:27,055; 183
18:53:27,059; 97
18:53:27,062; 61
18:53:27,066; 78
18:53:27,070; 140
18:53:27,074; 179
18:53:27,078; 136
18:53:27,082; 121
18:53:27,086; 130
18:53:27,090; 162
18:53:27,094; 185
18:53:27,098; 193
18:53:27,102; 183
18:53:27,105; 197
18:53:27,109; 174
18:53:27,113; 169
18:53:27,117; 158
18:53:27,121; 169
18:53:27,125; 174
18:53:27,129; 228
18:53:27,133; 194
18:53:27,137; 161
18:53:27,141; 192
18:53:27,145; 178
18:53:27,148; 169
18:53:27,152; 173
18:53:27,156; 209
18:53:27,160; 226
18:53:27,164; 221
18:53:27,168; 257
18:53:27,172; 259
18:53:27,176; 259
18:53:27,180; 247
18:53:27,184; 243
18:53:27,188; 262
18:53:27,191; 306
18:53:27,195; 355
18:53:27,199; 366
18:53:27,203; 362
18:53:27,207; 373
18:53:27,211; 383
18:53:27,215; 372
18:53:27,219; 389
18:53:27,223; 441
18:53:27,227; 497
18:53:27,230; 545
18:53:27,234; 591
18:53:27,238; 579
18:53:27,242; 592
18:53:27,246; 596
18:53:27,250; 606
18:53:27,254; 653
18:53:27,258; 688
18:53:27,262; 718
18:53:27,266; 730
18:53:27,270; 741
18:53:27,273; 734
18:53:27,277; 746
18:53:27,281; 777
18:53:27,285; 745
18:53:27,289; 697
18:53:27,293; 627
18:53:27,297; 585
18:53:27,301; 527
18:53:27,305; 477
18:53:27,309; 439
18:53:27,313; 426
18:53:27,316; 370
18:53:27,320; 314
18:53:27,324; 303
18:53:27,328; 222
18:53:27,332; 201
18:53:27,336; 163
18:53:27,340; 157
18:53:27,344; 154
18:53:27,348; 155
18:53:27,352; 161
18:53:27,355; 161
18:53:27,359; 147
18:53:27,363; 152
18:53:27,367; 166
18:53:27,371; 167
18:53:27,375; 166
18:53:27,379; 155
18:53:27,383; 148
18:53:27,387; 132
18:53:27,391; 120
18:53:27,395; 137
18:53:27,398; 165
18:53:27,402; 184
18:53:27,406; 185
18:53:27,410; 157
18:53:27,414; 175
18:53:27,418; 154
18:53:27,422; 130
18:53:27,426; 117
18:53:27,430; 112
18:53:27,434; 141
18:53:27,438; 134
18:53:27,441; 119
18:53:27,445; 111
18:53:27,449; 130
18:53:27,453; 132
18:53:27,457; 93
18:53:27,461; 113
18:53:27,465; 110
18:53:27,469; 112
18:53:27,473; 121
18:53:27,477; 136
18:53:27,480; 137
18:53:27,484; 131
18:53:27,488; 109
18:53:27,492; 90
18:53:27,496; 112
18:53:27,500; 86
18:53:27,504; 88
18:53:27,508; 96
18:53:27,512; 71
18:53:27,516; 46
18:53:27,520; 29
18:53:27,523; 45
18:53:27,527; 66
18:53:27,531; 72
18:53:27,535; 68
18:53:27,539; 81
18:53:27,543; 69
18:53:27,547; 61
18:53:27,551; 61
18:53:27,555; 55
18:53:27,559; 74
18:53:27,563; 144
18:53:27,566; 148
18:53:27,570; 163
18:53:27,574; 187
18:53:27,578; 163
18:53:27,582; 190
18:53:27,586; 173
18:53:27,590; 169
18:53:27,594; 170
18:53:27,598; 167
18:53:27,602; 172
18:53:27,605; 146
18:53:27,609; 143
18:53:27,613; 167
18:53:27,617; 172
18:53:27,621; 143
18:53:27,625; 91
18:53:27,629; 82
18:53:27,633; 48
18:53:27,637; 12
18:53:27,641; 3
18:53:27,645; -5
18:53:27,648; 1
18:53:27,652; 5
18:53:27,656; 22
18:53:27,660; 11
18:53:27,664; 21
18:53:27,668; 31
18:53:27,672; 19
18:53:27,676; 16
18:53:27,680; 12
18:53:27,684; 32
18:53:27,688; 13
18:53:27,691; 5
18:53:27,695; 19
18:53:27,699; 6
18:53:27,703; -4
18:53:27,707; 54
18:53:27,711; 135
18:53:27,715; 260
18:53:27,719; 540
18:53:27,723; 1181
18:53:27,727; 1853
18:53:27,730; 2260
18:53:27,734; 2588
18:53:27,738; 2769
18:53:27,742; 2502
18:53:27,746; 1816
18:53:27,750; 940
18:53:27,754; 293
18:53:27,758; -102
18:53:27,762; -328
18:53:27,766; -283
18:53:27,770; 8
18:53:27,773; 249
18:53:27,777; 159
18:53:27,781; 133
18:53:27,785; 14
18:53:27,789; 11
18:53:27,793; 20
18:53:27,797; 49
18:53:27,801; 23
18:53:27,805; 41
18:53:27,809; -12
18:53:27,813; 74
18:53:27,816; 68
18:53:27,820; 91
18:53:27,824; 64
18:53:27,828; 22
18:53:27,832; 43
18:53:27,836; 44
18:53:27,840; 25
18:53:27,844; 46
18:53:27,848; 68
18:53:27,852; 94
18:53:27,855; 115
18:53:27,859; 93
18:53:27,863; 74
18:53:27,867; 84
18:53:27,871; 109
18:53:27,875; 93
18:53:27,879; 101
18:53:27,883; 134
18:53:27,887; 136
18:53:27,891; 126
18:53:27,895; 137
18:53:27,898; 165
18:53:27,902; 181
18:53:27,906; 158
18:53:27,910; 200
18:53:27,914; 232
18:53:27,918; 241
18:53:27,922; 245
18:53:27,926; 289
18:53:27,930; 304
18:53:27,934; 296
18:53:27,938; 320
18:53:27,941; 343
18:53:27,945; 353
18:53:27,949; 379
18:53:27,953; 410
18:53:27,957; 430
18:53:27,961; 486
18:53:27,965; 545
18:53:27,969; 605
18:53:27,973; 616
18:53:27,977; 635
18:53:27,980; 639
18:53:27,984; 650
18:53:27,988; 666
18:53:27,992; 671
18:53:27,996; 670
18:53:28,000; 680
18:53:28,004; 649
18:53:28,008; 611
18:53:28,012; 501
18:53:28,016; 465
18:53:28,020; 414
18:53:28,023; 307
18:53:28,027; 253
18:53:28,031; 245
18:53:28,035; 197
18:53:28,039; 156
18:53:28,043; 138
18:53:28,047; 113
18:53:28,051; 118
18:53:28,055; 74
18:53:28,059; 44
18:53:28,062; 36
18:53:28,066; 19
18:53:28,070; 1
18:53:28,074; -21
18:53:28,078; -17
18:53:28,082; 10
18:53:28,086; -24
18:53:28,090; 4
18:53:28,094; 1
18:53:28,098; 2
18:53:28,102; -2
18:53:28,105; 11
18:53:28,109; 43
18:53:28,113; 47
18:53:28,117; 25
18:53:28,121; 10
18:53:28,125; 15
18:53:28,129; 11
18:53:28,133; 9
18:53:28,137; 19
18:53:28,141; 38
18:53:28,145; 52
18:53:28,148; 58
18:53:28,152; 57
18:53:28,156; 25
18:53:28,160; 51
18:53:28,164; 10
18:53:28,168; -11
18:53:28,172; -3
18:53:28,176; -10
18:53:28,180; -8
18:53:28,184; 18
18:53:28,188; 22
18:53:28,191; -3
18:53:28,195; 11
18:53:28,199; 9
18:53:28,203; 2
18:53:28,207; -18
18:53:28,211; -5
18:53:28,215; 7
18:53:28,219; 33
18:53:28,223; 57
18:53:28,227; 61
18:53:28,230; 102
18:53:28,234; 96
18:53:28,238; 82
18:53:28,242; 98
18:53:28,246; 103
18:53:28,250; 87
18:53:28,254; 138
18:53:28,258; 109
18:53:28,262; 118
18:53:28,266; 83
18:53:28,270; 86
18:53:28,273; 79
18:53:28,277; 42
18:53:28,281; 27
18:53:28,285; 23
18:53:28,289; 1
18:53:28,293; -44
18:53:28,297; -42
18:53:28,301; -83
18:53:28,305; -99
18:53:28,309; -112
18:53:28,312; -125
18:53:28,316; -139
18:53:28,320; -107
18:53:28,324; -106
18:53:28,328; -127
18:53:28,332; -116
18:53:28,336; -117
18:53:28,340; -84
18:53:28,344; -126
18:53:28,348; -68
18:53:28,352; -86
18:53:28,355; -89
18:53:28,359; -146
18:53:28,363; -98
18:53:28,367; -86
18:53:28,371; 44
18:53:28,375; 265
18:53:28,379; 668
18:53:28,383; 1304
18:53:28,387; 1800
18:53:28,391; 2372
18:53:28,395; 2594
18:53:28,398; 2611
18:53:28,402; 2307
18:53:28,406; 1495
18:53:28,410; 715
18:53:28,414; 67
18:53:28,418; -305
18:53:28,422; -280
18:53:28,426; -206
18:53:28,430; -54
18:53:28,434; 163
18:53:28,438; 21
18:53:28,441; -49
18:53:28,445; -132
18:53:28,449; -93
18:53:28,453; -73
18:53:28,457; -69
18:53:28,461; -110
18:53:28,465; -150
18:53:28,469; -69
18:53:28,473; -68
18:53:28,477; -57
18:53:28,480; -30
18:53:28,484; -59
18:53:28,488; -70
18:53:28,492; -57
18:53:28,496; -68
18:53:28,500; -70
18:53:28,504; -86
18:53:28,508; -100
18:53:28,512; -66
18:53:28,516; -52
18:53:28,520; -49
18:53:28,523; -46
18:53:28,527; -35
18:53:28,531; -46
18:53:28,535; -24
18:53:28,539; -33
18:53:28,543; 1
18:53:28,547; 12
18:53:28,551; 46
18:53:28,555; 25
18:53:28,559; 18
18:53:28,562; 42
18:53:28,566; 62
18:53:28,570; 90
18:53:28,574; 118
18:53:28,578; 100
18:53:28,582; 113
18:53:28,586; 126
18:53:28,590; 128
18:53:28,594; 165
18:53:28,598; 225
18:53:28,602; 270
18:53:28,605; 301
18:53:28,609; 292
18:53:28,613; 356
18:53:28,617; 382
18:53:28,621; 408
18:53:28,625; 431
18:53:28,629; 453
18:53:28,633; 500
18:53:28,637; 490
18:53:28,641; 525
18:53:28,645; 554
18:53:28,648; 561
18:53:28,652; 557
18:53:28,656; 518
18:53:28,660; 489
18:53:28,664; 430
18:53:28,668; 375
18:53:28,672; 326
18:53:28,676; 284
18:53:28,680; 208
18:53:28,684; 174
18:53:28,688; 141
18:53:28,691; 96
18:53:28,695; 57
18:53:28,699; 37
18:53:28,703; 27
18:53:28,707; -4
18:53:28,711; -44
18:53:28,715; -77
18:53:28,719; -63
18:53:28,723; -82
18:53:28,727; -86
18:53:28,730; -87
18:53:28,734; -112
18:53:28,738; -124
18:53:28,742; -102
18:53:28,746; -115
18:53:28,750; -104
18:53:28,754; -72
18:53:28,758; -89
18:53:28,762; -98
18:53:28,766; -142
18:53:28,770; -116
18:53:28,773; -131
18:53:28,777; -115
18:53:28,781; -82
18:53:28,785; -85
18:53:28,789; -100
18:53:28,793; -96
18:53:28,797; -115
18:53:28,801; -81
18:53:28,805; -102
18:53:28,809; -74
18:53:28,813; -63
18:53:28,816; -60
18:53:28,820; -66
18:53:28,824; -85
18:53:28,828; -68
18:53:28,832; -43
18:53:28,836; -54
18:53:28,840; -65
18:53:28,844; -75
18:53:28,848; -74
18:53:28,852; -61
18:53:28,855; -101
18:53:28,859; -91
18:53:28,863; -76
18:53:28,867; -77
18:53:28,871; -101
18:53:28,875; -104
18:53:28,879; -115
18:53:28,883; -111
18:53:28,887; -139
18:53:28,891; -121
18:53:28,895; -137
18:53:28,898; -117
18:53:28,902; -113
18:53:28,906; -128
18:53:28,910; -94
18:53:28,914; -66
18:53:28,918; -47
18:53:28,922; -42
18:53:28,926; -26
18:53:28,930; -28
18:53:28,934; -35
18:53:28,938; -19
18:53:28,941; -2
18:53:28,945; 29
18:53:28,949; 5
18:53:28,953; -7
18:53:28,957; -19
18:53:28,961; -36
18:53:28,965; -57
18:53:28,969; -57
18:53:28,973; -69
18:53:28,977; -85
18:53:28,980; -97
18:53:28,984; -133
18:53:28,988; -156
18:53:28,992; -169
18:53:28,996; -154
18:53:29,000; -174
18:53:29,004; -199
18:53:29,008; -201
18:53:29,012; -188
18:53:29,016; -190
18:53:29,020; -185
18:53:29,023; -197
18:53:29,027; -179
18:53:29,031; -186
18:53:29,035; -184
18:53:29,039; -181
18:53:29,043; -170
18:53:29,047; -174
18:53:29,051; -163
18:53:29,055; -202
18:53:29,059; -228
18:53:29,063; -175
18:53:29,066; -56
18:53:29,070; 177
18:53:29,074; 530
18:53:29,078; 1159
18:53:29,082; 1793
18:53:29,086; 2322
18:53:29,090; 2593
18:53:29,094; 2666
18:53:29,098; 2361
18:53:29,102; 1614
18:53:29,105; 754
18:53:29,109; 105
18:53:29,113; -240
18:53:29,117; -397
18:53:29,121; -339
18:53:29,125; -96
18:53:29,129; -35
18:53:29,133; -100
18:53:29,137; -146
18:53:29,141; -178
18:53:29,145; -190
18:53:29,148; -136
18:53:29,152; -79
18:53:29,156; -183
18:53:29,160; -186
18:53:29,164; -204
18:53:29,168; -188
18:53:29,172; -154
18:53:29,176; -167
18:53:29,180; -128
18:53:29,184; -134
18:53:29,188; -140
18:53:29,191; -140
18:53:29,195; -134
18:53:29,199; -112
18:53:29,203; -115
18:53:29,207; -113
18:53:29,211; -114
18:53:29,215; -123
18:53:29,219; -134
18:53:29,223; -100
18:53:29,227; -79
18:53:29,230; -59
18:53:29,234; -54
18:53:29,238; -49
18:53:29,242; -23
18:53:29,246; -22
18:53:29,250; -24
18:53:29,254; -28
18:53:29,258; -11
18:53:29,262; 10
18:53:29,266; -16
18:53:29,270; 22
18:53:29,273; 53
18:53:29,277; 64
18:53:29,281; 78
18:53:29,285; 103
18:53:29,289; 143
18:53:29,293; 175
18:53:29,297; 177
18:53:29,301; 204
18:53:29,305; 264
18:53:29,309; 291
18:53:29,313; 332
18:53:29,316; 372
18:53:29,320; 407
18:53:29,324; 426
18:53:29,328; 431
18:53:29,332; 466
18:53:29,336; 496
18:53:29,340; 507
18:53:29,344; 477
18:53:29,348; 479
18:53:29,352; 477
18:53:29,355; 438
18:53:29,359; 387
18:53:29,363; 374
18:53:29,367; 340
18:53:29,371; 264
18:53:29,375; 226
18:53:29,379; 196
18:53:29,383; 146
18:53:29,387; 107
18:53:29,391; 77
18:53:29,395; 40
18:53:29,398; 7
18:53:29,402; -8
18:53:29,406; -1
18:53:29,410; -33
18:53:29,414; -32
18:53:29,418; -36
18:53:29,422; -69
18:53:29,426; -78
18:53:29,430; -69
18:53:29,434; -96
18:53:29,438; -112
18:53:29,441; -112
18:53:29,445; -95
18:53:29,449; -97
18:53:29,453; -100
18:53:29,457; -80
18:53:29,461; -52
18:53:29,465; -88
18:53:29,469; -79
18:53:29,473; -80
18:53:29,477; -60
18:53:29,480; -54
18:53:29,484; -79
18:53:29,488; -50
18:53:29,492; -45
18:53:29,496; -58
18:53:29,500; -58
18:53:29,504; -52
18:53:29,508; -30
18:53:29,512; -55
18:53:29,516; -55
18:53:29,520; -28
18:53:29,523; -37
18:53:29,527; -36
18:53:29,531; -45
18:53:29,535; -47
18:53:29,539; -28
18:53:29,543; -15
18:53:29,547; -26
18:53:29,551; -30
18:53:29,555; -37
18:53:29,559; -61
18:53:29,563; -67
18:53:29,566; -68
18:53:29,570; -51
18:53:29,574; -11
18:53:29,578; -56
18:53:29,582; -52
18:53:29,586; -66
18:53:29,590; -79
18:53:29,594; -87
18:53:29,598; -92
18:53:29,602; -71
18:53:29,605; -81
18:53:29,609; -91
18:53:29,613; -96
18:53:29,617; -106
18:53:29,621; -89
18:53:29,625; -92
18:53:29,629; -68
18:53:29,633; -90
18:53:29,637; -91
18:53:29,641; -89
18:53:29,645; -103
18:53:29,648; -90
18:53:29,652; -84
18:53:29,656; -86
18:53:29,660; -98
18:53:29,664; -111
18:53:29,668; -88
18:53:29,672; -86
18:53:29,676; -70
18:53:29,680; -61
18:53:29,684; -60
18:53:29,688; -83
18:53:29,691; -116
18:53:29,695; -116
18:53:29,699; -116
18:53:29,703; -139
18:53:29,707; -125
18:53:29,711; -106
18:53:29,715; -106
18:53:29,719; -97
18:53:29,723; -83
18:53:29,727; -86
18:53:29,730; -72
18:53:29,734; -98
18:53:29,738; -81
18:53:29,742; -90
18:53:29,746; -82
18:53:29,750; -100
18:53:29,754; -82
18:53:29,758; -69
18:53:29,762; -82
18:53:29,766; -95
18:53:29,770; -86
18:53:29,773; -71
18:53:29,777; -91
18:53:29,781; -89
18:53:29,785; -87
18:53:29,789; -74
18:53:29,793; -74
18:53:29,797; -92
18:53:29,801; -73
18:53:29,805; -83
18:53:29,809; -100
18:53:29,812; -92
18:53:29,816; -99
18:53:29,820; -84
18:53:29,824; -73
18:53:29,828; -83
18:53:29,832; -76
18:53:29,836; -91
18:53:29,840; -95
18:53:29,844; -66
18:53:29,848; -74
18:53:29,852; -65
18:53:29,855; -59
18:53:29,859; -46
18:53:29,863; -57
18:53:29,867; -83
18:53:29,871; -63
18:53:29,875; -54
18:53:29,879; -88
18:53:29,883; -87
18:53:29,887; -81
18:53:29,891; -91
18:53:29,895; -98
18:53:29,898; -91
18:53:29,902; -80
18:53:29,906; -73
18:53:29,910; -76
18:53:29,914; -88
18:53:29,918; -69
18:53:29,922; -81
18:53:29,926; -60
18:53:29,930; -47
18:53:29,934; -42
18:53:29,938; -55
18:53:29,941; -65
18:53:29,945; -55
18:53:29,949; -77
18:53:29,953; -66
18:53:29,957; -46
18:53:29,961; -48
18:53:29,965; -58
18:53:29,969; -49
18:53:29,973; -72
18:53:29,977; -105
18:53:29,980; -71
18:53:29,984; -65
18:53:29,988; -55
18:53:29,992; -36
18:53:29,996; -32
18:53:30,000; -33
18:53:30,004; -62
18:53:30,008; -64
18:53:30,012; -55
18:53:30,016; -35
18:53:30,020; -24
18:53:30,023; -19
18:53:30,027; -5
18:53:30,031; 7
18:53:30,035; 26
18:53:30,039; 70
18:53:30,043; 64
18:53:30,047; 68
18:53:30,051; 102
18:53:30,055; 105
18:53:30,059; 102
18:53:30,062; 94
18:53:30,066; 110
18:53:30,070; 89
18:53:30,074; 68
18:53:30,078; 26
18:53:30,082; 21
18:53:30,086; 19
18:53:30,090; 5
18:53:30,094; -2
18:53:30,098; -11
18:53:30,102; -4
18:53:30,105; -30
18:53:30,109; -36
18:53:30,113; -27
18:53:30,117; -15
18:53:30,121; -10
18:53:30,125; -20
18:53:30,129; -51
18:53:30,133; -47
18:53:30,137; -39
18:53:30,141; -15
18:53:30,145; -5
18:53:30,148; 8
18:53:30,152; 1
18:53:30,156; -39
18:53:30,160; -81
18:53:30,164; -49
18:53:30,168; -4
18:53:30,172; 61
18:53:30,176; 165
18:53:30,180; 398
18:53:30,184; 929
18:53:30,188; 1632
18:53:30,191; 2195
18:53:30,195; 2500
18:53:30,199; 2623
18:53:30,203; 2424
18:53:30,207; 1745
18:53:30,211; 851
18:53:30,215; 250
18:53:30,219; -53
18:53:30,223; -40
18:53:30,227; -198
18:53:30,230; 104
18:53:30,234; 175
18:53:30,238; 200
18:53:30,242; 3
18:53:30,246; 28
18:53:30,250; -59
18:53:30,254; 62
18:53:30,258; 57
18:53:30,262; 27
18:53:30,266; -66
18:53:30,270; 28
18:53:30,273; 2
18:53:30,277; 42
18:53:30,281; -13
18:53:30,285; -4
18:53:30,289; 11
18:53:30,293; 22
18:53:30,297; 4
18:53:30,301; 34
18:53:30,305; 37
18:53:30,309; 57
18:53:30,313; 71
18:53:30,316; 57
18:53:30,320; 69
18:53:30,324; 55
18:53:30,328; 58
18:53:30,332; 80
18:53:30,336; 96
18:53:30,340; 98
18:53:30,344; 113
18:53:30,348; 101
18:53:30,352; 120
18:53:30,355; 132
18:53:30,359; 119
18:53:30,363; 147
18:53:30,367; 159
18:53:30,371; 133
18:53:30,375; 136
18:53:30,379; 164
18:53:30,383; 215
18:53:30,387; 207
18:53:30,391; 227
18:53:30,395; 261
18:53:30,398; 278
18:53:30,402; 289
18:53:30,406; 346
18:53:30,410; 385
18:53:30,414; 403
18:53:30,418; 429
18:53:30,422; 461
18:53:30,426; 473
18:53:30,430; 511
18:53:30,434; 548
18:53:30,438; 548
18:53:30,441; 569
18:53:30,445; 594
18:53:30,449; 617
18:53:30,453; 637
18:53:30,457; 654
18:53:30,461; 666
18:53:30,465; 652
18:53:30,469; 657
18:53:30,473; 641
18:53:30,477; 604
18:53:30,480; 576
18:53:30,484; 544
18:53:30,488; 481
18:53:30,492; 410
18:53:30,496; 381
18:53:30,500; 354
18:53:30,504; 292
18:53:30,508; 256
18:53:30,512; 241
18:53:30,516; 233
18:53:30,520; 206
18:53:30,523; 183
18:53:30,527; 164
18:53:30,531; 139
18:53:30,535; 114
18:53:30,539; 108
18:53:30,543; 122
18:53:30,547; 101
18:53:30,551; 96
18:53:30,555; 121
18:53:30,559; 104
18:53:30,563; 97
18:53:30,566; 94
18:53:30,570; 115
18:53:30,574; 115
18:53:30,578; 93
18:53:30,582; 110
18:53:30,586; 127
18:53:30,590; 128
18:53:30,594; 134
18:53:30,598; 140
18:53:30,602; 147
18:53:30,605; 143
18:53:30,609; 143
18:53:30,613; 125
18:53:30,617; 141
18:53:30,621; 178
18:53:30,625; 142
18:53:30,629; 127
18:53:30,633; 140
18:53:30,637; 127
18:53:30,641; 128
18:53:30,645; 146
18:53:30,648; 188
18:53:30,652; 161
18:53:30,656; 124
18:53:30,660; 124
18:53:30,664; 118
18:53:30,668; 96
18:53:30,672; 91
18:53:30,676; 129
18:53:30,680; 135
18:53:30,684; 102
18:53:30,688; 109
18:53:30,691; 104
18:53:30,695; 107
18:53:30,699; 103
18:53:30,703; 110
18:53:30,707; 91
18:53:30,711; 81
18:53:30,715; 62
18:53:30,719; 46
18:53:30,723; 53
18:53:30,727; 71
18:53:30,730; 82
18:53:30,734; 81
18:53:30,738; 74
18:53:30,742; 67
18:53:30,746; 58
18:53:30,750; 69
18:53:30,754; 91
18:53:30,758; 88
18:53:30,762; 74
18:53:30,766; 67
18:53:30,770; 88
18:53:30,773; 75
18:53:30,777; 44
18:53:30,781; 59
18:53:30,785; 69
18:53:30,789; 81
18:53:30,793; 78
18:53:30,797; 74
18:53:30,801; 100
18:53:30,805; 50
18:53:30,809; 39
18:53:30,813; 43
18:53:30,816; 31
18:53:30,820; 52
18:53:30,824; 60
18:53:30,828; 51
18:53:30,832; 78
18:53:30,836; 63
18:53:30,840; 74
18:53:30,844; 56
18:53:30,848; 49
18:53:30,852; 60
18:53:30,855; 62
18:53:30,859; 85
18:53:30,863; 92
18:53:30,867; 69
18:53:30,871; 96
18:53:30,875; 66
18:53:30,879; 55
18:53:30,883; 44
18:53:30,887; 49
18:53:30,891; 45
18:53:30,895; 44
18:53:30,898; 53
18:53:30,902; 62
18:53:30,906; 63
18:53:30,910; 46
18:53:30,914; 56
18:53:30,918; 67
18:53:30,922; 65
18:53:30,926; 73
18:53:30,930; 77
18:53:30,934; 88
18:53:30,938; 70
18:53:30,941; 83
18:53:30,945; 92
18:53:30,949; 70
18:53:30,953; 61
18:53:30,957; 57
18:53:30,961; 73
18:53:30,965; 62
18:53:30,969; 71
18:53:30,973; 94
18:53:30,977; 93
18:53:30,980; 61
18:53:30,984; 72
18:53:30,988; 64
18:53:30,992; 50
18:53:30,996; 52
18:53:31,000; 63
18:53:31,004; 80
18:53:31,008; 75
18:53:31,012; 78
18:53:31,016; 87
18:53:31,020; 83
18:53:31,023; 58
18:53:31,027; 73
18:53:31,031; 82
18:53:31,035; 75
18:53:31,039; 56
18:53:31,043; 89
18:53:31,047; 97
18:53:31,051; 89
18:53:31,055; 70
18:53:31,059; 81
18:53:31,063; 89
18:53:31,066; 101
18:53:31,070; 125
18:53:31,074; 153
18:53:31,078; 149
18:53:31,082; 144
18:53:31,086; 130
18:53:31,090; 151
18:53:31,094; 172
18:53:31,098; 207
18:53:31,102; 216
18:53:31,105; 199
18:53:31,109; 194
18:53:31,113; 191
18:53:31,117; 166
18:53:31,121; 156
18:53:31,125; 164
18:53:31,129; 173
18:53:31,133; 149
18:53:31,137; 148
18:53:31,141; 117
18:53:31,145; 97
18:53:31,148; 73
18:53:31,152; 75
18:53:31,156; 84
18:53:31,160; 103
18:53:31,164; 74
18:53:31,168; 74
18:53:31,172; 56
18:53:31,176; 55
18:53:31,180; 59
18:53:31,184; 51
18:53:31,188; 81
18:53:31,191; 74
18:53:31,195; 42
18:53:31,199; 47
18:53:31,203; 42
18:53:31,207; 28
18:53:31,211; 30
18:53:31,215; 87
18:53:31,219; 186
18:53:31,223; 430
18:53:31,227; 762
18:53:31,230; 1246
18:53:31,234; 1802
18:53:31,238; 2215
18:53:31,242; 2664
18:53:31,246; 2610
18:53:31,250; 2455
18:53:31,254; 1902
18:53:31,258; 1177
18:53:31,262; 465
18:53:31,266; 94
18:53:31,270; -4
18:53:31,273; -25
18:53:31,277; 108
18:53:31,281; 169
18:53:31,285; 252
18:53:31,289; 136
18:53:31,293; 129
18:53:31,297; 99
18:53:31,301; 179
18:53:31,305; 159
18:53:31,309; 69
18:53:31,312; 79
18:53:31,316; 71
18:53:31,320; 88
18:53:31,324; 129
18:53:31,328; 100
18:53:31,332; 122
18:53:31,336; 108
18:53:31,340; 128
18:53:31,344; 148
18:53:31,348; 145
18:53:31,352; 152
18:53:31,355; 143
18:53:31,359; 141
18:53:31,363; 146
18:53:31,367; 137
18:53:31,371; 151
18:53:31,375; 173
18:53:31,379; 188
18:53:31,383; 173
18:53:31,387; 172
18:53:31,391; 203
18:53:31,395; 179
18:53:31,398; 184
18:53:31,402; 206
18:53:31,406; 233
18:53:31,410; 206
18:53:31,414; 212
18:53:31,418; 236
18:53:31,422; 238
18:53:31,426; 254
18:53:31,430; 270
18:53:31,434; 329
18:53:31,438; 335
18:53:31,441; 351
18:53:31,445; 386
18:53:31,449; 406
18:53:31,453; 409
18:53:31,457; 450
18:53:31,461; 509
18:53:31,465; 515
18:53:31,469; 517
18:53:31,473; 542
18:53:31,477; 602
18:53:31,480; 601
18:53:31,484; 596
18:53:31,488; 670
18:53:31,492; 680
18:53:31,496; 669
18:53:31,500; 706
18:53:31,504; 714
18:53:31,508; 710
18:53:31,512; 721
18:53:31,516; 703
18:53:31,520; 663
18:53:31,523; 650
18:53:31,527; 616
18:53:31,531; 561
18:53:31,535; 508
18:53:31,539; 444
18:53:31,543; 400
18:53:31,547; 373
18:53:31,551; 343
18:53:31,555; 291
18:53:31,559; 271
18:53:31,562; 251
18:53:31,566; 210
18:53:31,570; 183
18:53:31,574; 182
18:53:31,578; 164
18:53:31,582; 165
18:53:31,586; 151
18:53:31,590; 159
18:53:31,594; 165
18:53:31,598; 139
18:53:31,602; 132
18:53:31,605; 127
18:53:31,609; 121
18:53:31,613; 139
18:53:31,617; 140
18:53:31,621; 151
18:53:31,625; 142
18:53:31,629; 163
18:53:31,633; 179
18:53:31,637; 157
18:53:31,641; 160
18:53:31,645; 142
18:53:31,648; 125
18:53:31,652; 135
18:53:31,656; 140
18:53:31,660; 166
18:53:31,664; 169
18:53:31,668; 158
18:53:31,672; 141
18:53:31,676; 133
18:53:31,680; 138
18:53:31,684; 162
18:53:31,688; 154
18:53:31,691; 169
18:53:31,695; 170
18:53:31,699; 161
18:53:31,703; 161
18:53:31,707; 151
18:53:31,711; 164
18:53:31,715; 154
18:53:31,719; 157
18:53:31,723; 154
18:53:31,727; 144
18:53:31,730; 147
18:53:31,734; 130
18:53:31,738; 130
18:53:31,742; 146
18:53:31,746; 130
18:53:31,750; 133
18:53:31,754; 147
18:53:31,758; 103
18:53:31,762; 94
18:53:31,766; 81
18:53:31,770; 103
18:53:31,773; 74
18:53:31,777; 83
18:53:31,781; 87
18:53:31,785; 93
18:53:31,789; 85
18:53:31,793; 88
18:53:31,797; 114
18:53:31,801; 146
18:53:31,805; 118
18:53:31,809; 109
18:53:31,812; 105
18:53:31,816; 82
18:53:31,820; 69
18:53:31,824; 69
18:53:31,828; 90
18:53:31,832; 84
18:53:31,836; 88
18:53:31,840; 102
18:53:31,844; 123
18:53:31,848; 131
18:53:31,852; 114
18:53:31,855; 77
18:53:31,859; 69
18:53:31,863; 52
18:53:31,867; 49
18:53:31,871; 72
18:53:31,875; 92
18:53:31,879; 113
18:53:31,883; 99
18:53:31,887; 74
18:53:31,891; 77
18:53:31,895; 64
18:53:31,898; 81
18:53:31,902; 77
18:53:31,906; 80
18:53:31,910; 83
18:53:31,914; 86
18:53:31,918; 90
18:53:31,922; 82
18:53:31,926; 67
18:53:31,930; 95
18:53:31,934; 105
18:53:31,938; 115
18:53:31,941; 79
18:53:31,945; 69
18:53:31,949; 70
18:53:31,953; 58
18:53:31,957; 57
18:53:31,961; 83
18:53:31,965; 96
18:53:31,969; 107
18:53:31,973; 92
18:53:31,977; 96
18:53:31,980; 83
18:53:31,984; 67
18:53:31,988; 82
18:53:31,992; 106
18:53:31,996; 83
18:53:32,000; 85
18:53:32,004; 78
18:53:32,008; 76
18:53:32,012; 74
18:53:32,016; 69
18:53:32,020; 100
18:53:32,023; 117
18:53:32,027; 97
18:53:32,031; 97
18:53:32,035; 83
18:53:32,039; 106
18:53:32,043; 119
18:53:32,047; 90
18:53:32,051; 108
18:53:32,055; 100
18:53:32,059; 81
18:53:32,063; 91
18:53:32,066; 97
18:53:32,070; 115
18:53:32,074; 100
18:53:32,078; 112
18:53:32,082; 156
18:53:32,086; 133
18:53:32,090; 144
18:53:32,094; 154
18:53:32,098; 178
18:53:32,102; 201
18:53:32,105; 210
18:53:32,109; 225
18:53:32,113; 248
18:53:32,117; 243
18:53:32,121; 245
18:53:32,125; 248
18:53:32,129; 233
18:53:32,133; 230
18:53:32,137; 221
18:53:32,141; 204
18:53:32,145; 169
18:53:32,148; 151
18:53:32,152; 180
18:53:32,156; 131
18:53:32,160; 128
18:53:32,164; 132
18:53:32,168; 128
18:53:32,172; 116
18:53:32,176; 74
18:53:32,180; 78
18:53:32,184; 93
18:53:32,188; 88
18:53:32,191; 98
18:53:32,195; 119
18:53:32,199; 111
18:53:32,203; 99
18:53:32,207; 104
18:53:32,211; 100
18:53:32,215; 110
18:53:32,219; 99
18:53:32,223; 69
18:53:32,227; 71
18:53:32,230; 126
18:53:32,234; 184
18:53:32,238; 364
18:53:32,242; 814
18:53:32,246; 1286
18:53:32,250; 1786
18:53:32,254; 2279
18:53:32,258; 2609
18:53:32,262; 2547
18:53:32,266; 2348
18:53:32,270; 1813
18:53:32,273; 1061
18:53:32,277; 294
18:53:32,281; 192
18:53:32,285; -125
18:53:32,289; -36
18:53:32,293; 160
18:53:32,297; 293
18:53:32,301; 213
18:53:32,305; 126
18:53:32,309; 152
18:53:32,313; 111
18:53:32,316; 172
18:53:32,320; 141
18:53:32,324; 111
18:53:32,328; 76
18:53:32,332; 89
18:53:32,336; 141
18:53:32,340; 161
18:53:32,344; 172
18:53:32,348; 181
18:53:32,352; 157
18:53:32,355; 145
18:53:32,359; 167
18:53:32,363; 164
18:53:32,367; 162
18:53:32,371; 145
18:53:32,375; 166
18:53:32,379; 172
18:53:32,383; 170
18:53:32,387; 189
18:53:32,391; 201
18:53:32,395; 206
18:53:32,398; 230
18:53:32,402; 224
18:53:32,406; 230
18:53:32,410; 235
18:53:32,414; 249
18:53:32,418; 264
18:53:32,422; 272
18:53:32,426; 269
18:53:32,430; 282
18:53:32,434; 284
18:53:32,438; 285
18:53:32,441; 287
18:53:32,445; 300
18:53:32,449; 333
18:53:32,453; 353
18:53:32,457; 367
18:53:32,461; 400
18:53:32,465; 407
18:53:32,469; 443
18:53:32,473; 470
18:53:32,477; 500
18:53:32,480; 541
18:53:32,484; 585
18:53:32,488; 600
18:53:32,492; 619
18:53:32,496; 638
18:53:32,500; 668
18:53:32,504; 698
18:53:32,508; 754
18:53:32,512; 777
18:53:32,516; 764
18:53:32,520; 784
18:53:32,523; 776
18:53:32,527; 758
18:53:32,531; 721
18:53:32,535; 724
18:53:32,539; 696
18:53:32,543; 627
18:53:32,547; 558
18:53:32,551; 524
18:53:32,555; 466
18:53:32,559; 390
18:53:32,563; 366
18:53:32,566; 344
18:53:32,570; 306
18:53:32,574; 275
18:53:32,578; 252
18:53:32,582; 230
18:53:32,586; 234
18:53:32,590; 198
18:53:32,594; 183
18:53:32,598; 207
18:53:32,602; 210
18:53:32,605; 177
18:53:32,609; 177
18:53:32,613; 189
18:53:32,617; 162
18:53:32,621; 142
18:53:32,625; 135
18:53:32,629; 149
18:53:32,633; 147
18:53:32,637; 157
18:53:32,641; 187
18:53:32,645; 208
18:53:32,648; 201
18:53:32,652; 190
18:53:32,656; 173
18:53:32,660; 158
18:53:32,664; 137
18:53:32,668; 157
18:53:32,672; 178
18:53:32,676; 194
18:53:32,680; 207
18:53:32,684; 211
18:53:32,688; 201
18:53:32,691; 189
18:53:32,695; 194
18:53:32,699; 206
18:53:32,703; 222
18:53:32,707; 216
18:53:32,711; 195
18:53:32,715; 199
18:53:32,719; 208
18:53:32,723; 179
18:53:32,727; 180
18:53:32,730; 191
18:53:32,734; 178
18:53:32,738; 169
18:53:32,742; 161
18:53:32,746; 180
18:53:32,750; 186
18:53:32,754; 173
18:53:32,758; 181
18:53:32,762; 164
18:53:32,766; 159
18:53:32,770; 144
18:53:32,773; 148
18:53:32,777; 122
18:53:32,781; 126
18:53:32,785; 137
18:53:32,789; 145
18:53:32,793; 152
18:53:32,797; 141
18:53:32,801; 144
18:53:32,805; 130
18:53:32,809; 120
18:53:32,812; 140
18:53:32,816; 147
18:53:32,820; 160
18:53:32,824; 151
18:53:32,828; 173
18:53:32,832; 155
18:53:32,836; 137
18:53:32,840; 142
18:53:32,844; 114
18:53:32,848; 108
18:53:32,852; 122
18:53:32,855; 127
18:53:32,859; 155
18:53:32,863; 156
18:53:32,867; 146
18:53:32,871; 135
18:53:32,875; 117
18:53:32,879; 87
18:53:32,883; 91
18:53:32,887; 90
18:53:32,891; 107
18:53:32,895; 102
18:53:32,898; 131
18:53:32,902; 127
18:53:32,906; 116
18:53:32,910; 155
18:53:32,914; 141
18:53:32,918; 141
18:53:32,922; 135
18:53:32,926; 138
18:53:32,930; 122
18:53:32,934; 104
18:53:32,938; 122
18:53:32,941; 150
18:53:32,945; 147
18:53:32,949; 120
18:53:32,953; 143
18:53:32,957; 132
18:53:32,961; 158
18:53:32,965; 129
18:53:32,969; 114
18:53:32,973; 141
18:53:32,977; 121
18:53:32,980; 99
18:53:32,984; 116
18:53:32,988; 154
18:53:32,992; 165
18:53:32,996; 165
18:53:33,000; 164
18:53:33,004; 161
18:53:33,008; 166
18:53:33,012; 171
18:53:33,016; 183
18:53:33,020; 199
18:53:33,023; 194
18:53:33,027; 196
18:53:33,031; 171
18:53:33,035; 184
18:53:33,039; 196
18:53:33,043; 207
18:53:33,047; 217
18:53:33,051; 201
18:53:33,055; 212
18:53:33,059; 204
18:53:33,062; 213
18:53:33,066; 254
18:53:33,070; 267
18:53:33,074; 278
18:53:33,078; 297
18:53:33,082; 315
18:53:33,086; 329
18:53:33,090; 343
18:53:33,094; 328
18:53:33,098; 322
18:53:33,102; 282
18:53:33,105; 267
18:53:33,109; 272
18:53:33,113; 280
18:53:33,117; 271
18:53:33,121; 243
18:53:33,125; 227
18:53:33,129; 209
18:53:33,133; 202
18:53:33,137; 203
18:53:33,141; 178
18:53:33,145; 168
18:53:33,148; 169
18:53:33,152; 158
18:53:33,156; 158
18:53:33,160; 171
18:53:33,164; 167
18:53:33,168; 180
18:53:33,172; 167
18:53:33,176; 154
18:53:33,180; 165
18:53:33,184; 170
18:53:33,188; 162
18:53:33,191; 146
18:53:33,195; 164
18:53:33,199; 231
18:53:33,203; 388
18:53:33,207; 640
18:53:33,211; 1051
18:53:33,215; 1537
18:53:33,219; 2032
18:53:33,223; 2550
18:53:33,227; 2632
18:53:33,230; 2628
18:53:33,234; 2323
18:53:33,238; 1645
18:53:33,242; 824
18:53:33,246; 238
18:53:33,250; 132
18:53:33,254; -19
18:53:33,258; 74
18:53:33,262; 323
18:53:33,266; 368
18:53:33,270; 285
18:53:33,273; 237
18:53:33,277; 128
18:53:33,281; 222
18:53:33,285; 232
18:53:33,289; 210
18:53:33,293; 208
18:53:33,297; 194
18:53:33,301; 225
18:53:33,305; 240
18:53:33,309; 205
18:53:33,312; 215
18:53:33,316; 219
18:53:33,320; 183
18:53:33,324; 238
18:53:33,328; 253
18:53:33,332; 262
18:53:33,336; 246
18:53:33,340; 206
18:53:33,344; 235
18:53:33,348; 232
18:53:33,352; 249
18:53:33,355; 257
18:53:33,359; 265
18:53:33,363; 264
18:53:33,367; 271
18:53:33,371; 275
18:53:33,375; 289
18:53:33,379; 322
18:53:33,383; 306
18:53:33,387; 302
18:53:33,391; 286
18:53:33,395; 311
18:53:33,398; 340
18:53:33,402; 337
18:53:33,406; 352
18:53:33,410; 357
18:53:33,414; 390
18:53:33,418; 399
18:53:33,422; 428
18:53:33,426; 425
18:53:33,430; 455
18:53:33,434; 509
18:53:33,438; 531
18:53:33,441; 544
18:53:33,445; 579
18:53:33,449; 610
18:53:33,453; 647
18:53:33,457; 657
18:53:33,461; 693
18:53:33,465; 746
18:53:33,469; 743
18:53:33,473; 738
18:53:33,477; 771
18:53:33,480; 796
18:53:33,484; 815
18:53:33,488; 834
18:53:33,492; 859
18:53:33,496; 831
18:53:33,500; 792
18:53:33,504; 745
18:53:33,508; 686
18:53:33,512; 623
18:53:33,516; 554
18:53:33,520; 539
18:53:33,523; 485
18:53:33,527; 454
18:53:33,531; 417
18:53:33,535; 340
18:53:33,539; 333
18:53:33,543; 319
18:53:33,547; 309
18:53:33,551; 281
18:53:33,555; 251
18:53:33,559; 230
18:53:33,563; 194
18:53:33,566; 171
18:53:33,570; 166
18:53:33,574; 172
18:53:33,578; 155
18:53:33,582; 156
18:53:33,586; 146
18:53:33,590; 169
18:53:33,594; 168
18:53:33,598; 183
18:53:33,602; 183
18:53:33,605; 184
18:53:33,609; 151
18:53:33,613; 152
18:53:33,617; 164
18:53:33,621; 161
18:53:33,625; 168
18:53:33,629; 173
18:53:33,633; 176
18:53:33,637; 177
18:53:33,641; 193
18:53:33,645; 176
18:53:33,648; 200
18:53:33,652; 219
18:53:33,656; 201
18:53:33,660; 205
18:53:33,664; 177
18:53:33,668; 190
18:53:33,672; 194
18:53:33,676; 182
18:53:33,680; 191
18:53:33,684; 197
18:53:33,688; 227
18:53:33,691; 210
18:53:33,695; 159
18:53:33,699; 154
18:53:33,703; 165
18:53:33,707; 147
18:53:33,711; 133
18:53:33,715; 174
18:53:33,719; 189
18:53:33,723; 177
18:53:33,727; 132
18:53:33,730; 137
18:53:33,734; 127
18:53:33,738; 113
18:53:33,742; 116
18:53:33,746; 137
18:53:33,750; 146
18:53:33,754; 139
18:53:33,758; 149
18:53:33,762; 146
18:53:33,766; 139
18:53:33,770; 154
18:53:33,773; 155
18:53:33,777; 127
18:53:33,781; 95
18:53:33,785; 91
18:53:33,789; 71
18:53:33,793; 64
18:53:33,797; 86
18:53:33,801; 110
18:53:33,805; 102
18:53:33,809; 115
18:53:33,813; 131
18:53:33,816; 123
18:53:33,820; 101
18:53:33,824; 122
18:53:33,828; 108
18:53:33,832; 101
18:53:33,836; 101
18:53:33,840; 100
18:53:33,844; 100
18:53:33,848; 107
18:53:33,852; 112
18:53:33,855; 81
18:53:33,859; 80
18:53:33,863; 93
18:53:33,867; 115
18:53:33,871; 109
18:53:33,875; 127
18:53:33,879; 169
18:53:33,883; 172
18:53:33,887; 159
18:53:33,891; 164
18:53:33,895; 182
18:53:33,898; 194
18:53:33,902; 210
18:53:33,906; 233
18:53:33,910; 237
18:53:33,914; 215
18:53:33,918; 208
18:53:33,922; 206
18:53:33,926; 181
18:53:33,930; 158
18:53:33,934; 175
18:53:33,938; 183
18:53:33,941; 131
18:53:33,945; 132
18:53:33,949; 104
18:53:33,953; 73
18:53:33,957; 71
18:53:33,961; 63
18:53:33,965; 53
18:53:33,969; 70
18:53:33,973; 50
18:53:33,977; 56
18:53:33,980; 68
18:53:33,984; 37
18:53:33,988; 71
18:53:33,992; 51
18:53:33,996; 35
18:53:34,000; 35
18:53:34,004; 49
18:53:34,008; 62
18:53:34,012; 78
18:53:34,016; 51
18:53:34,020; 52
18:53:34,023; 88
18:53:34,027; 155
18:53:34,031; 283
18:53:34,035; 551
18:53:34,039; 1131
18:53:34,043; 1895
18:53:34,047; 2315
18:53:34,051; 2678
18:53:34,055; 2761
18:53:34,059; 2347
18:53:34,063; 1625
18:53:34,066; 634
18:53:34,070; 191
18:53:34,074; -177
18:53:34,078; -84
18:53:34,082; -192
18:53:34,086; 126
18:53:34,090; 301
18:53:34,094; 157
18:53:34,098; 145
18:53:34,102; 66
18:53:34,105; 79
18:53:34,109; 70
18:53:34,113; 78
18:53:34,117; 53
18:53:34,121; 84
18:53:34,125; 101
18:53:34,129; 118
18:53:34,133; 78
18:53:34,137; 57
18:53:34,141; 94
18:53:34,145; 89
18:53:34,148; 86
18:53:34,152; 121
18:53:34,156; 122
18:53:34,160; 126
18:53:34,164; 109
18:53:34,168; 128
18:53:34,172; 145
18:53:34,176; 149
18:53:34,180; 127
18:53:34,184; 160
18:53:34,188; 161
18:53:34,191; 190
18:53:34,195; 186
18:53:34,199; 201
18:53:34,203; 174
18:53:34,207; 162
18:53:34,211; 173
18:53:34,215; 199
18:53:34,219; 213
18:53:34,223; 249
18:53:34,227; 248
18:53:34,230; 301
18:53:34,234; 275
18:53:34,238; 253
18:53:34,242; 277
18:53:34,246; 294
18:53:34,250; 314
18:53:34,254; 350
18:53:34,258; 438
18:53:34,262; 434
18:53:34,266; 479
18:53:34,270; 512
18:53:34,273; 492
18:53:34,277; 573
18:53:34,281; 612
18:53:34,285; 649
18:53:34,289; 660
18:53:34,293; 665
18:53:34,297; 687
18:53:34,301; 705
18:53:34,305; 699
18:53:34,309; 750
18:53:34,313; 739
18:53:34,316; 703
18:53:34,320; 651
18:53:34,324; 615
18:53:34,328; 585
18:53:34,332; 551
18:53:34,336; 506
18:53:34,340; 459
18:53:34,344; 408
18:53:34,348; 345
18:53:34,352; 299
18:53:34,355; 265
18:53:34,359; 245
18:53:34,363; 235
18:53:34,367; 201
18:53:34,371; 182
18:53:34,375; 152
18:53:34,379; 108
18:53:34,383; 41
18:53:34,387; 65
18:53:34,391; 63
18:53:34,395; 55
18:53:34,398; 81
18:53:34,402; 67
18:53:34,406; 59
18:53:34,410; 53
18:53:34,414; 41
18:53:34,418; 57
18:53:34,422; 54
18:53:34,426; 50
18:53:34,430; 82
18:53:34,434; 83
18:53:34,438; 101
18:53:34,441; 113
18:53:34,445; 118
18:53:34,449; 119
18:53:34,453; 91
18:53:34,457; 95
18:53:34,461; 99
18:53:34,465; 92
18:53:34,469; 113
18:53:34,473; 86
18:53:34,477; 69
18:53:34,480; 109
18:53:34,484; 82
18:53:34,488; 65
18:53:34,492; 71
18:53:34,496; 61
18:53:34,500; 66
18:53:34,504; 61
18:53:34,508; 69
18:53:34,512; 85
18:53:34,516; 67
18:53:34,520; 64
18:53:34,523; 59
18:53:34,527; 64
18:53:34,531; 91
18:53:34,535; 81
18:53:34,539; 60
18:53:34,543; 48
18:53:34,547; 28
18:53:34,551; 35
18:53:34,555; 25
18:53:34,559; 56
18:53:34,562; 71
18:53:34,566; 70
18:53:34,570; 73
18:53:34,574; 81
18:53:34,578; 99
18:53:34,582; 105
18:53:34,586; 107
18:53:34,590; 150
18:53:34,594; 140
18:53:34,598; 137
18:53:34,602; 162
18:53:34,605; 147
18:53:34,609; 132
18:53:34,613; 172
18:53:34,617; 139
18:53:34,621; 144
18:53:34,625; 174
18:53:34,629; 167
18:53:34,633; 120
18:53:34,637; 95
18:53:34,641; 91
18:53:34,645; 42
18:53:34,648; -9
18:53:34,652; 13
18:53:34,656; 46
18:53:34,660; 17
18:53:34,664; -2
18:53:34,668; -3
18:53:34,672; 11
18:53:34,676; 0
18:53:34,680; -28
18:53:34,684; 7
18:53:34,688; -9
18:53:34,691; -57
18:53:34,695; -48
18:53:34,699; -56
18:53:34,703; -61
18:53:34,707; -56
18:53:34,711; -50
18:53:34,715; -79
18:53:34,719; -99
18:53:34,723; -76
18:53:34,727; 3
18:53:34,730; 113
18:53:34,734; 342
18:53:34,738; 727
18:53:34,742; 1436
18:53:34,746; 1786
18:53:34,750; 2406
18:53:34,754; 2739
18:53:34,758; 2579
18:53:34,762; 2327
18:53:34,766; 1571
18:53:34,770; 806
18:53:34,773; 164
18:53:34,777; -167
18:53:34,781; -254
18:53:34,785; -153
18:53:34,789; 50
18:53:34,793; 67
18:53:34,797; 95
18:53:34,801; -37
18:53:34,805; -88
18:53:34,809; -87
18:53:34,812; -35
18:53:34,816; -37
18:53:34,820; -29
18:53:34,824; -90
18:53:34,828; -71
18:53:34,832; -62
18:53:34,836; -48
18:53:34,840; -12
18:53:34,844; 6
18:53:34,848; -16
18:53:34,852; -21
18:53:34,855; -37
18:53:34,859; -69
18:53:34,863; -78
18:53:34,867; -40
18:53:34,871; 4
18:53:34,875; -10
18:53:34,879; -14
18:53:34,883; -32
18:53:34,887; -21
18:53:34,891; -9
18:53:34,895; -12
18:53:34,898; 21
18:53:34,902; 2
18:53:34,906; 8
18:53:34,910; 38
18:53:34,914; 29
18:53:34,918; 52
18:53:34,922; 55
18:53:34,926; 75
18:53:34,930; 85
18:53:34,934; 88
18:53:34,938; 112
18:53:34,941; 174
18:53:34,945; 194
18:53:34,949; 198
18:53:34,953; 239
18:53:34,957; 282
18:53:34,961; 277
18:53:34,965; 300
18:53:34,969; 333
18:53:34,973; 371
18:53:34,977; 379
18:53:34,980; 421
18:53:34,984; 475
18:53:34,988; 491
18:53:34,992; 545
18:53:34,996; 521
18:53:35,000; 576
18:53:35,004; 611
18:53:35,008; 610
18:53:35,012; 615
18:53:35,016; 610
18:53:35,020; 574
18:53:35,023; 521
18:53:35,027; 487
18:53:35,031; 439
18:53:35,035; 394
18:53:35,039; 341
18:53:35,043; 269
18:53:35,047; 225
18:53:35,051; 145
18:53:35,055; 95
18:53:35,059; 117
18:53:35,063; 63
18:53:35,066; 50
18:53:35,070; 8
18:53:35,074; 4
18:53:35,078; -46
18:53:35,082; -82
18:53:35,086; -75
18:53:35,090; -68
18:53:35,094; -88
18:53:35,098; -57
18:53:35,102; -67
18:53:35,105; -70
18:53:35,109; -85
18:53:35,113; -90
18:53:35,117; -87
18:53:35,121; -79
18:53:35,125; -64
18:53:35,129; -43
18:53:35,133; -51
18:53:35,137; -55
18:53:35,141; -54
18:53:35,145; -68
18:53:35,148; -61
18:53:35,152; -43
18:53:35,156; -46
18:53:35,160; -7
18:53:35,164; -44
18:53:35,168; -52
18:53:35,172; -60
18:53:35,176; -73
18:53:35,180; -71
18:53:35,184; -45
18:53:35,188; -23
18:53:35,191; -38
18:53:35,195; -26
18:53:35,199; -1
18:53:35,203; -36
18:53:35,207; -6
18:53:35,211; -20
18:53:35,215; -28
18:53:35,219; -16
18:53:35,223; 22
18:53:35,227; 22
18:53:35,230; -11
18:53:35,234; -15
18:53:35,238; -41
18:53:35,242; -106
18:53:35,246; -90
18:53:35,250; -68
18:53:35,254; -43
18:53:35,258; -37
18:53:35,262; -53
18:53:35,266; -42
18:53:35,270; -40
18:53:35,273; -57
18:53:35,277; -68
18:53:35,281; -42
18:53:35,285; -68
18:53:35,289; -111
18:53:35,293; -100
18:53:35,297; -91
18:53:35,301; -70
18:53:35,305; -53
18:53:35,309; 6
18:53:35,313; 34
18:53:35,316; 55
18:53:35,320; 84
18:53:35,324; 71
18:53:35,328; 47
18:53:35,332; 15
18:53:35,336; -10
18:53:35,340; 32
18:53:35,344; -7
18:53:35,348; 26
18:53:35,352; 30
18:53:35,355; 56
18:53:35,359; 60
18:53:35,363; 41
18:53:35,367; -12
18:53:35,371; -10
18:53:35,375; -33
18:53:35,379; -79
18:53:35,383; -164
18:53:35,387; -109
18:53:35,391; -136
18:53:35,395; -156
18:53:35,398; -132
18:53:35,402; -137
18:53:35,406; -107
18:53:35,410; -107
18:53:35,414; -96
18:53:35,418; -113
18:53:35,422; -134
18:53:35,426; -102
18:53:35,430; -138
18:53:35,434; -120
18:53:35,438; -96
18:53:35,441; -125
18:53:35,445; -121
18:53:35,449; -139
18:53:35,453; -126
18:53:35,457; -66
18:53:35,461; 149
18:53:35,465; 514
18:53:35,469; 953
18:53:35,473; 1475
18:53:35,477; 2225
18:53:35,480; 2394
18:53:35,484; 2697
18:53:35,488; 2569
18:53:35,492; 2061
18:53:35,496; 1284
18:53:35,500; 357
18:53:35,504; -110
18:53:35,508; -259
18:53:35,512; -341
18:53:35,516; -171
18:53:35,520; 85
18:53:35,523; 82
18:53:35,527; -28
18:53:35,531; -57
18:53:35,535; -151
18:53:35,539; -49
18:53:35,543; -54
18:53:35,547; -88
18:53:35,551; -84
18:53:35,555; -91
18:53:35,559; -55
18:53:35,563; -96
18:53:35,566; -85
18:53:35,570; -92
18:53:35,574; -83
18:53:35,578; -38
18:53:35,582; -45
18:53:35,586; -65
18:53:35,590; -31
18:53:35,594; -87
18:53:35,598; -76
18:53:35,602; -73
18:53:35,605; -53
18:53:35,609; -14
18:53:35,613; -53
18:53:35,617; -57
18:53:35,621; -25
18:53:35,625; -41
18:53:35,629; -13
18:53:35,633; 8
18:53:35,637; 27
18:53:35,641; 45
18:53:35,645; 54
18:53:35,648; 33
18:53:35,652; 20
18:53:35,656; 45
18:53:35,660; 113
18:53:35,664; 134
18:53:35,668; 135
18:53:35,672; 147
18:53:35,676; 142
18:53:35,680; 146
18:53:35,684; 193
18:53:35,688; 224
18:53:35,691; 284
18:53:35,695; 314
18:53:35,699; 348
18:53:35,703; 359
18:53:35,707; 401
18:53:35,711; 474
18:53:35,715; 493
18:53:35,719; 501
18:53:35,723; 540
18:53:35,727; 580
18:53:35,730; 565
18:53:35,734; 583
18:53:35,738; 593
18:53:35,742; 600
18:53:35,746; 570
18:53:35,750; 506
18:53:35,754; 482
18:53:35,758; 439
18:53:35,762; 390
18:53:35,766; 333
18:53:35,770; 275
18:53:35,773; 244
18:53:35,777; 175
18:53:35,781; 127
18:53:35,785; 98
18:53:35,789; 64
18:53:35,793; 40
18:53:35,797; 4
18:53:35,801; -7
18:53:35,805; 4
18:53:35,809; -27
18:53:35,813; -32
18:53:35,816; -18
18:53:35,820; -41
18:53:35,824; -79
18:53:35,828; -90
18:53:35,832; -54
18:53:35,836; -66
18:53:35,840; -63
18:53:35,844; -83
18:53:35,848; -45
18:53:35,852; -66
18:53:35,855; -92
18:53:35,859; -108
18:53:35,863; -87
18:53:35,867; -83
18:53:35,871; -84
18:53:35,875; -73
18:53:35,879; -55
18:53:35,883; -52
18:53:35,887; -55
18:53:35,891; -68
18:53:35,895; -57
18:53:35,898; -8
18:53:35,902; -8
18:53:35,906; -12
18:53:35,910; -18
18:53:35,914; -10
18:53:35,918; -30
18:53:35,922; -52
18:53:35,926; -39
18:53:35,930; -15
18:53:35,934; -15
18:53:35,938; -33
18:53:35,941; -47
18:53:35,945; -23
18:53:35,949; -33
18:53:35,953; -59
18:53:35,957; -40
18:53:35,961; -39
18:53:35,965; -65
18:53:35,969; -59
18:53:35,973; -64
18:53:35,977; -62
18:53:35,980; -45
18:53:35,984; -58
18:53:35,988; -22
18:53:35,992; -19
18:53:35,996; -28
18:53:36,000; -55
18:53:36,004; -70
18:53:36,008; -84
18:53:36,012; -67
18:53:36,016; -77
18:53:36,020; -66
18:53:36,023; -77
18:53:36,027; -96
18:53:36,031; -108
18:53:36,035; -98
18:53:36,039; -81
18:53:36,043; -61
18:53:36,047; -46
18:53:36,051; -53
18:53:36,055; -80
18:53:36,059; -78
18:53:36,062; -73
18:53:36,066; -94
18:53:36,070; -98
18:53:36,074; -98
18:53:36,078; -76
18:53:36,082; -73
18:53:36,086; -75
18:53:36,090; -55
18:53:36,094; -61
18:53:36,098; -52
18:53:36,102; -59
18:53:36,105; -54
18:53:36,109; -37
18:53:36,113; -52
18:53:36,117; -46
18:53:36,121; -61
18:53:36,125; -84
18:53:36,129; -94
18:53:36,133; -101
18:53:36,137; -79
18:53:36,141; -72
18:53:36,145; -79
18:53:36,148; -67
18:53:36,152; -51
18:53:36,156; -60
18:53:36,160; -64
18:53:36,164; -43
18:53:36,168; -23
18:53:36,172; -61
18:53:36,176; -91
18:53:36,180; -83
18:53:36,184; -70
18:53:36,188; -72
18:53:36,191; -53
18:53:36,195; -38
18:53:36,199; -35
18:53:36,203; -48
18:53:36,207; -38
18:53:36,211; -52
18:53:36,215; -69
18:53:36,219; -66
18:53:36,223; -73
18:53:36,227; -76
18:53:36,230; -70
18:53:36,234; -64
18:53:36,238; -57
18:53:36,242; -41
18:53:36,246; -48
18:53:36,250; -41
18:53:36,254; -40
18:53:36,258; -15
18:53:36,262; -46
18:53:36,266; -66
18:53:36,270; -34
18:53:36,273; -48
18:53:36,277; -42
18:53:36,281; -24
18:53:36,285; -7
18:53:36,289; -33
18:53:36,293; -62
18:53:36,297; -38
18:53:36,301; -35
18:53:36,305; -30
18:53:36,309; -47
18:53:36,312; -38
18:53:36,316; -58
18:53:36,320; -53
18:53:36,324; -53
18:53:36,328; -50
18:53:36,332; -38
18:53:36,336; -33
18:53:36,340; -16
18:53:36,344; -42
18:53:36,348; -25
18:53:36,352; 2
18:53:36,355; 12
18:53:36,359; -15
18:53:36,363; -47
18:53:36,367; -37
18:53:36,371; -19
18:53:36,375; -17
18:53:36,379; -4
18:53:36,383; 9
18:53:36,387; 20
18:53:36,391; 2
18:53:36,395; -25
18:53:36,398; -15
18:53:36,402; -7
18:53:36,406; 2
18:53:36,410; 15
18:53:36,414; 28
18:53:36,418; 59
18:53:36,422; 26
18:53:36,426; 64
18:53:36,430; 91
18:53:36,434; 92
18:53:36,438; 121
18:53:36,441; 161
18:53:36,445; 169
18:53:36,449; 149
18:53:36,453; 126
18:53:36,457; 130
18:53:36,461; 116
18:53:36,465; 105
18:53:36,469; 124
18:53:36,473; 102
18:53:36,477; 89
18:53:36,480; 101
18:53:36,484; 85
18:53:36,488; 71
18:53:36,492; 52
18:53:36,496; 28
18:53:36,500; 4
18:53:36,504; 18
18:53:36,508; -4
18:53:36,512; 40
18:53:36,516; 39
18:53:36,520; 35
18:53:36,523; 18
18:53:36,527; 16
