Signal Type: ECG_Type
Start Time: 26/04/2023 19:27:18
Sample Rate: 256
Length: 75648
Unit: µV

Data:
19:27:18,000; 0
19:27:18,004; 0
19:27:18,008; 0
19:27:18,012; 0
19:27:18,016; 0
19:27:18,020; 0
19:27:18,023; 0
19:27:18,027; 0
19:27:18,031; 0
19:27:18,035; 0
19:27:18,039; 0
19:27:18,043; 0
19:27:18,047; 0
19:27:18,051; 0
19:27:18,055; 0
19:27:18,059; 0
19:27:18,062; 0
19:27:18,066; 0
19:27:18,070; 0
19:27:18,074; 0
19:27:18,078; 0
19:27:18,082; 0
19:27:18,086; 0
19:27:18,090; 0
19:27:18,094; 0
19:27:18,098; 0
19:27:18,102; 0
19:27:18,105; 0
19:27:18,109; 0
19:27:18,113; 0
19:27:18,117; 0
19:27:18,121; 0
19:27:18,125; 0
19:27:18,129; 0
19:27:18,133; 0
19:27:18,137; 0
19:27:18,141; 0
19:27:18,145; 0
19:27:18,148; 0
19:27:18,152; 0
19:27:18,156; 0
19:27:18,160; 0
19:27:18,164; 0
19:27:18,168; 0
19:27:18,172; 0
19:27:18,176; 0
19:27:18,180; 0
19:27:18,184; 0
19:27:18,188; 0
19:27:18,191; 0
19:27:18,195; 0
19:27:18,199; 0
19:27:18,203; 0
19:27:18,207; 0
19:27:18,211; 0
19:27:18,215; 0
19:27:18,219; 0
19:27:18,223; 0
19:27:18,227; 0
19:27:18,230; 0
19:27:18,234; 0
19:27:18,238; 0
19:27:18,242; 0
19:27:18,246; 0
19:27:18,250; 0
19:27:18,254; 0
19:27:18,258; 0
19:27:18,262; 0
19:27:18,266; 0
19:27:18,270; 0
19:27:18,273; 0
19:27:18,277; 0
19:27:18,281; 0
19:27:18,285; 0
19:27:18,289; 0
19:27:18,293; 0
19:27:18,297; 0
19:27:18,301; 0
19:27:18,305; 0
19:27:18,309; 0
19:27:18,312; 0
19:27:18,316; 0
19:27:18,320; 0
19:27:18,324; 0
19:27:18,328; 0
19:27:18,332; 0
19:27:18,336; 0
19:27:18,340; 0
19:27:18,344; 0
19:27:18,348; 0
19:27:18,352; 0
19:27:18,355; 0
19:27:18,359; 0
19:27:18,363; 0
19:27:18,367; 0
19:27:18,371; 0
19:27:18,375; 0
19:27:18,379; 0
19:27:18,383; 0
19:27:18,387; 0
19:27:18,391; 0
19:27:18,395; 0
19:27:18,398; 0
19:27:18,402; 0
19:27:18,406; 0
19:27:18,410; 0
19:27:18,414; 0
19:27:18,418; 0
19:27:18,422; 0
19:27:18,426; 0
19:27:18,430; 0
19:27:18,434; 0
19:27:18,438; 0
19:27:18,441; 0
19:27:18,445; 0
19:27:18,449; 0
19:27:18,453; 0
19:27:18,457; 0
19:27:18,461; 0
19:27:18,465; 0
19:27:18,469; 0
19:27:18,473; 0
19:27:18,477; 0
19:27:18,480; 0
19:27:18,484; 0
19:27:18,488; 0
19:27:18,492; 0
19:27:18,496; 0
19:27:18,500; 0
19:27:18,504; 0
19:27:18,508; 0
19:27:18,512; 0
19:27:18,516; 0
19:27:18,520; 0
19:27:18,523; 0
19:27:18,527; 0
19:27:18,531; 0
19:27:18,535; 0
19:27:18,539; 0
19:27:18,543; 0
19:27:18,547; 0
19:27:18,551; 0
19:27:18,555; 0
19:27:18,559; 0
19:27:18,562; 0
19:27:18,566; 0
19:27:18,570; 0
19:27:18,574; 0
19:27:18,578; 0
19:27:18,582; 0
19:27:18,586; 0
19:27:18,590; 0
19:27:18,594; 0
19:27:18,598; 0
19:27:18,602; 0
19:27:18,605; 0
19:27:18,609; 0
19:27:18,613; 0
19:27:18,617; 0
19:27:18,621; 0
19:27:18,625; 0
19:27:18,629; 0
19:27:18,633; 0
19:27:18,637; 0
19:27:18,641; 0
19:27:18,645; 0
19:27:18,648; 0
19:27:18,652; 0
19:27:18,656; 0
19:27:18,660; 0
19:27:18,664; 0
19:27:18,668; 0
19:27:18,672; 0
19:27:18,676; 0
19:27:18,680; 0
19:27:18,684; 0
19:27:18,688; 0
19:27:18,691; 0
19:27:18,695; 0
19:27:18,699; 0
19:27:18,703; 0
19:27:18,707; 0
19:27:18,711; 0
19:27:18,715; 0
19:27:18,719; 0
19:27:18,723; 0
19:27:18,727; 0
19:27:18,730; 0
19:27:18,734; 0
19:27:18,738; 0
19:27:18,742; 0
19:27:18,746; 0
19:27:18,750; -894
19:27:18,754; -772
19:27:18,758; -1026
19:27:18,762; -1221
19:27:18,766; -1226
19:27:18,770; -1043
19:27:18,773; -979
19:27:18,777; -1075
19:27:18,781; -1149
19:27:18,785; -1125
19:27:18,789; -1059
19:27:18,793; -1047
19:27:18,797; -1061
19:27:18,801; -1072
19:27:18,805; -1077
19:27:18,809; -1048
19:27:18,812; -1060
19:27:18,816; -1048
19:27:18,820; -1028
19:27:18,824; -1050
19:27:18,828; -1006
19:27:18,832; -1019
19:27:18,836; -1014
19:27:18,840; -1022
19:27:18,844; -1026
19:27:18,848; -1059
19:27:18,852; -1041
19:27:18,855; -1019
19:27:18,859; -1039
19:27:18,863; -1010
19:27:18,867; -1009
19:27:18,871; -1016
19:27:18,875; -1018
19:27:18,879; -998
19:27:18,883; -1019
19:27:18,887; -1047
19:27:18,891; -1025
19:27:18,895; -1040
19:27:18,898; -1055
19:27:18,902; -1056
19:27:18,906; -1068
19:27:18,910; -1071
19:27:18,914; -1061
19:27:18,918; -1080
19:27:18,922; -1071
19:27:18,926; -1066
19:27:18,930; -1055
19:27:18,934; -1060
19:27:18,938; -1055
19:27:18,941; -1060
19:27:18,945; -1077
19:27:18,949; -1064
19:27:18,953; -1076
19:27:18,957; -1087
19:27:18,961; -1079
19:27:18,965; -1070
19:27:18,969; -1056
19:27:18,973; -1065
19:27:18,977; -1072
19:27:18,980; -1064
19:27:18,984; -1075
19:27:18,988; -1091
19:27:18,992; -1080
19:27:18,996; -1056
19:27:19,000; -1076
19:27:19,004; -1071
19:27:19,008; -1065
19:27:19,012; -1072
19:27:19,016; -1062
19:27:19,020; -1062
19:27:19,023; -1031
19:27:19,027; -1039
19:27:19,031; -1068
19:27:19,035; -1046
19:27:19,039; -1048
19:27:19,043; -1049
19:27:19,047; -1050
19:27:19,051; -1029
19:27:19,055; -1048
19:27:19,059; -1049
19:27:19,062; -1033
19:27:19,066; -1043
19:27:19,070; -1044
19:27:19,074; -1042
19:27:19,078; -1048
19:27:19,082; -1047
19:27:19,086; -1029
19:27:19,090; -1022
19:27:19,094; -1019
19:27:19,098; -1015
19:27:19,102; -1027
19:27:19,105; -1012
19:27:19,109; -1011
19:27:19,113; -1029
19:27:19,117; -1022
19:27:19,121; -1009
19:27:19,125; -1029
19:27:19,129; -1023
19:27:19,133; -1014
19:27:19,137; -1002
19:27:19,141; -1004
19:27:19,145; -990
19:27:19,148; -1004
19:27:19,152; -992
19:27:19,156; -995
19:27:19,160; -1011
19:27:19,164; -988
19:27:19,168; -992
19:27:19,172; -981
19:27:19,176; -976
19:27:19,180; -993
19:27:19,184; -982
19:27:19,188; -1001
19:27:19,191; -993
19:27:19,195; -963
19:27:19,199; -989
19:27:19,203; -980
19:27:19,207; -982
19:27:19,211; -982
19:27:19,215; -985
19:27:19,219; -1012
19:27:19,223; -957
19:27:19,227; -978
19:27:19,230; -976
19:27:19,234; -970
19:27:19,238; -973
19:27:19,242; -964
19:27:19,246; -988
19:27:19,250; -959
19:27:19,254; -969
19:27:19,258; -971
19:27:19,262; -942
19:27:19,266; -945
19:27:19,270; -951
19:27:19,273; -942
19:27:19,277; -921
19:27:19,281; -887
19:27:19,285; -900
19:27:19,289; -876
19:27:19,293; -853
19:27:19,297; -831
19:27:19,301; -840
19:27:19,305; -806
19:27:19,309; -791
19:27:19,313; -782
19:27:19,316; -790
19:27:19,320; -803
19:27:19,324; -820
19:27:19,328; -830
19:27:19,332; -810
19:27:19,336; -818
19:27:19,340; -833
19:27:19,344; -809
19:27:19,348; -837
19:27:19,352; -877
19:27:19,355; -892
19:27:19,359; -914
19:27:19,363; -897
19:27:19,367; -904
19:27:19,371; -907
19:27:19,375; -895
19:27:19,379; -878
19:27:19,383; -892
19:27:19,387; -889
19:27:19,391; -891
19:27:19,395; -885
19:27:19,398; -901
19:27:19,402; -888
19:27:19,406; -873
19:27:19,410; -870
19:27:19,414; -882
19:27:19,418; -872
19:27:19,422; -856
19:27:19,426; -788
19:27:19,430; -626
19:27:19,434; -289
19:27:19,438; 140
19:27:19,441; 704
19:27:19,445; 1287
19:27:19,449; 1613
19:27:19,453; 1708
19:27:19,457; 1620
19:27:19,461; 1142
19:27:19,465; 226
19:27:19,469; -421
19:27:19,473; -946
19:27:19,477; -1097
19:27:19,480; -965
19:27:19,484; -958
19:27:19,488; -641
19:27:19,492; -669
19:27:19,496; -709
19:27:19,500; -877
19:27:19,504; -896
19:27:19,508; -774
19:27:19,512; -817
19:27:19,516; -808
19:27:19,520; -808
19:27:19,523; -830
19:27:19,527; -816
19:27:19,531; -831
19:27:19,535; -837
19:27:19,539; -850
19:27:19,543; -826
19:27:19,547; -813
19:27:19,551; -806
19:27:19,555; -803
19:27:19,559; -818
19:27:19,562; -811
19:27:19,566; -825
19:27:19,570; -793
19:27:19,574; -797
19:27:19,578; -791
19:27:19,582; -770
19:27:19,586; -787
19:27:19,590; -783
19:27:19,594; -752
19:27:19,598; -767
19:27:19,602; -781
19:27:19,605; -766
19:27:19,609; -751
19:27:19,613; -750
19:27:19,617; -738
19:27:19,621; -730
19:27:19,625; -711
19:27:19,629; -715
19:27:19,633; -708
19:27:19,637; -699
19:27:19,641; -676
19:27:19,645; -656
19:27:19,648; -638
19:27:19,652; -621
19:27:19,656; -597
19:27:19,660; -590
19:27:19,664; -568
19:27:19,668; -562
19:27:19,672; -536
19:27:19,676; -512
19:27:19,680; -495
19:27:19,684; -462
19:27:19,688; -451
19:27:19,691; -421
19:27:19,695; -412
19:27:19,699; -407
19:27:19,703; -346
19:27:19,707; -338
19:27:19,711; -339
19:27:19,715; -300
19:27:19,719; -327
19:27:19,723; -302
19:27:19,727; -321
19:27:19,730; -315
19:27:19,734; -326
19:27:19,738; -354
19:27:19,742; -391
19:27:19,746; -420
19:27:19,750; -433
19:27:19,754; -472
19:27:19,758; -481
19:27:19,762; -514
19:27:19,766; -549
19:27:19,770; -575
19:27:19,773; -607
19:27:19,777; -624
19:27:19,781; -636
19:27:19,785; -646
19:27:19,789; -637
19:27:19,793; -648
19:27:19,797; -645
19:27:19,801; -665
19:27:19,805; -660
19:27:19,809; -661
19:27:19,812; -661
19:27:19,816; -654
19:27:19,820; -644
19:27:19,824; -644
19:27:19,828; -652
19:27:19,832; -662
19:27:19,836; -654
19:27:19,840; -665
19:27:19,844; -657
19:27:19,848; -649
19:27:19,852; -654
19:27:19,855; -667
19:27:19,859; -675
19:27:19,863; -658
19:27:19,867; -672
19:27:19,871; -669
19:27:19,875; -666
19:27:19,879; -672
19:27:19,883; -669
19:27:19,887; -687
19:27:19,891; -680
19:27:19,895; -670
19:27:19,898; -688
19:27:19,902; -682
19:27:19,906; -696
19:27:19,910; -704
19:27:19,914; -699
19:27:19,918; -703
19:27:19,922; -710
19:27:19,926; -717
19:27:19,930; -711
19:27:19,934; -739
19:27:19,938; -712
19:27:19,941; -715
19:27:19,945; -723
19:27:19,949; -718
19:27:19,953; -729
19:27:19,957; -724
19:27:19,961; -739
19:27:19,965; -725
19:27:19,969; -723
19:27:19,973; -737
19:27:19,977; -740
19:27:19,980; -751
19:27:19,984; -739
19:27:19,988; -725
19:27:19,992; -739
19:27:19,996; -729
19:27:20,000; -739
19:27:20,004; -739
19:27:20,008; -747
19:27:20,012; -750
19:27:20,016; -738
19:27:20,020; -739
19:27:20,023; -737
19:27:20,027; -741
19:27:20,031; -753
19:27:20,035; -740
19:27:20,039; -747
19:27:20,043; -750
19:27:20,047; -748
19:27:20,051; -743
19:27:20,055; -750
19:27:20,059; -741
19:27:20,062; -735
19:27:20,066; -749
19:27:20,070; -735
19:27:20,074; -720
19:27:20,078; -756
19:27:20,082; -737
19:27:20,086; -747
19:27:20,090; -740
19:27:20,094; -732
19:27:20,098; -734
19:27:20,102; -731
19:27:20,105; -736
19:27:20,109; -726
19:27:20,113; -755
19:27:20,117; -728
19:27:20,121; -723
19:27:20,125; -743
19:27:20,129; -750
19:27:20,133; -714
19:27:20,137; -727
19:27:20,141; -753
19:27:20,145; -740
19:27:20,148; -712
19:27:20,152; -734
19:27:20,156; -739
19:27:20,160; -742
19:27:20,164; -729
19:27:20,168; -728
19:27:20,172; -762
19:27:20,176; -735
19:27:20,180; -719
19:27:20,184; -727
19:27:20,188; -731
19:27:20,191; -732
19:27:20,195; -732
19:27:20,199; -737
19:27:20,203; -721
19:27:20,207; -734
19:27:20,211; -709
19:27:20,215; -682
19:27:20,219; -683
19:27:20,223; -641
19:27:20,227; -644
19:27:20,230; -615
19:27:20,234; -595
19:27:20,238; -599
19:27:20,242; -580
19:27:20,246; -586
19:27:20,250; -596
19:27:20,254; -622
19:27:20,258; -618
19:27:20,262; -633
19:27:20,266; -621
19:27:20,270; -639
19:27:20,273; -651
19:27:20,277; -658
19:27:20,281; -688
19:27:20,285; -718
19:27:20,289; -737
19:27:20,293; -728
19:27:20,297; -744
19:27:20,301; -741
19:27:20,305; -756
19:27:20,309; -738
19:27:20,312; -750
19:27:20,316; -746
19:27:20,320; -766
19:27:20,324; -740
19:27:20,328; -730
19:27:20,332; -739
19:27:20,336; -724
19:27:20,340; -736
19:27:20,344; -741
19:27:20,348; -768
19:27:20,352; -763
19:27:20,355; -718
19:27:20,359; -618
19:27:20,363; -427
19:27:20,367; -128
19:27:20,371; 435
19:27:20,375; 983
19:27:20,379; 1428
19:27:20,383; 1674
19:27:20,387; 1762
19:27:20,391; 1397
19:27:20,395; 814
19:27:20,398; 108
19:27:20,402; -575
19:27:20,406; -793
19:27:20,410; -925
19:27:20,414; -916
19:27:20,418; -744
19:27:20,422; -580
19:27:20,426; -625
19:27:20,430; -716
19:27:20,434; -717
19:27:20,438; -761
19:27:20,441; -692
19:27:20,445; -709
19:27:20,449; -739
19:27:20,453; -732
19:27:20,457; -772
19:27:20,461; -702
19:27:20,465; -716
19:27:20,469; -715
19:27:20,473; -697
19:27:20,477; -701
19:27:20,480; -697
19:27:20,484; -720
19:27:20,488; -711
19:27:20,492; -708
19:27:20,496; -704
19:27:20,500; -688
19:27:20,504; -693
19:27:20,508; -676
19:27:20,512; -685
19:27:20,516; -678
19:27:20,520; -696
19:27:20,523; -669
19:27:20,527; -659
19:27:20,531; -653
19:27:20,535; -659
19:27:20,539; -644
19:27:20,543; -641
19:27:20,547; -646
19:27:20,551; -632
19:27:20,555; -612
19:27:20,559; -611
19:27:20,562; -599
19:27:20,566; -579
19:27:20,570; -565
19:27:20,574; -553
19:27:20,578; -536
19:27:20,582; -521
19:27:20,586; -515
19:27:20,590; -504
19:27:20,594; -490
19:27:20,598; -470
19:27:20,602; -438
19:27:20,605; -425
19:27:20,609; -396
19:27:20,613; -377
19:27:20,617; -353
19:27:20,621; -349
19:27:20,625; -343
19:27:20,629; -307
19:27:20,633; -299
19:27:20,637; -286
19:27:20,641; -272
19:27:20,645; -257
19:27:20,648; -254
19:27:20,652; -272
19:27:20,656; -268
19:27:20,660; -275
19:27:20,664; -294
19:27:20,668; -315
19:27:20,672; -359
19:27:20,676; -371
19:27:20,680; -410
19:27:20,684; -422
19:27:20,687; -472
19:27:20,691; -509
19:27:20,695; -522
19:27:20,699; -563
19:27:20,703; -558
19:27:20,707; -596
19:27:20,711; -584
19:27:20,715; -610
19:27:20,719; -629
19:27:20,723; -639
19:27:20,727; -628
19:27:20,730; -621
19:27:20,734; -623
19:27:20,738; -632
19:27:20,742; -610
19:27:20,746; -614
19:27:20,750; -625
19:27:20,754; -618
19:27:20,758; -619
19:27:20,762; -623
19:27:20,766; -622
19:27:20,770; -617
19:27:20,773; -617
19:27:20,777; -612
19:27:20,781; -603
19:27:20,785; -606
19:27:20,789; -625
19:27:20,793; -611
19:27:20,797; -608
19:27:20,801; -631
19:27:20,805; -647
19:27:20,809; -637
19:27:20,813; -633
19:27:20,816; -639
19:27:20,820; -661
19:27:20,824; -625
19:27:20,828; -639
19:27:20,832; -635
19:27:20,836; -654
19:27:20,840; -657
19:27:20,844; -649
19:27:20,848; -670
19:27:20,852; -674
19:27:20,855; -659
19:27:20,859; -659
19:27:20,863; -649
19:27:20,867; -670
19:27:20,871; -661
19:27:20,875; -661
19:27:20,879; -686
19:27:20,883; -694
19:27:20,887; -682
19:27:20,891; -689
19:27:20,895; -695
19:27:20,898; -681
19:27:20,902; -680
19:27:20,906; -687
19:27:20,910; -656
19:27:20,914; -684
19:27:20,918; -688
19:27:20,922; -692
19:27:20,926; -701
19:27:20,930; -692
19:27:20,934; -689
19:27:20,938; -674
19:27:20,941; -676
19:27:20,945; -683
19:27:20,949; -703
19:27:20,953; -720
19:27:20,957; -701
19:27:20,961; -699
19:27:20,965; -698
19:27:20,969; -687
19:27:20,973; -683
19:27:20,977; -673
19:27:20,980; -698
19:27:20,984; -698
19:27:20,988; -693
19:27:20,992; -703
19:27:20,996; -696
19:27:21,000; -695
19:27:21,004; -684
19:27:21,008; -696
19:27:21,012; -713
19:27:21,016; -684
19:27:21,020; -701
19:27:21,023; -694
19:27:21,027; -674
19:27:21,031; -693
19:27:21,035; -693
19:27:21,039; -678
19:27:21,043; -685
19:27:21,047; -681
19:27:21,051; -654
19:27:21,055; -639
19:27:21,059; -619
19:27:21,062; -608
19:27:21,066; -603
19:27:21,070; -557
19:27:21,074; -559
19:27:21,078; -542
19:27:21,082; -545
19:27:21,086; -530
19:27:21,090; -535
19:27:21,094; -548
19:27:21,098; -563
19:27:21,102; -578
19:27:21,105; -575
19:27:21,109; -584
19:27:21,113; -605
19:27:21,117; -603
19:27:21,121; -611
19:27:21,125; -623
19:27:21,129; -662
19:27:21,133; -700
19:27:21,137; -677
19:27:21,141; -720
19:27:21,145; -699
19:27:21,148; -703
19:27:21,152; -711
19:27:21,156; -700
19:27:21,160; -710
19:27:21,164; -693
19:27:21,168; -687
19:27:21,172; -695
19:27:21,176; -697
19:27:21,180; -710
19:27:21,184; -711
19:27:21,188; -700
19:27:21,191; -714
19:27:21,195; -732
19:27:21,199; -698
19:27:21,203; -615
19:27:21,207; -480
19:27:21,211; -180
19:27:21,215; 422
19:27:21,219; 851
19:27:21,223; 1366
19:27:21,227; 1734
19:27:21,230; 1656
19:27:21,234; 1533
19:27:21,238; 889
19:27:21,242; 299
19:27:21,246; -424
19:27:21,250; -798
19:27:21,254; -906
19:27:21,258; -816
19:27:21,262; -819
19:27:21,266; -581
19:27:21,270; -595
19:27:21,273; -622
19:27:21,277; -751
19:27:21,281; -693
19:27:21,285; -679
19:27:21,289; -679
19:27:21,293; -673
19:27:21,297; -694
19:27:21,301; -675
19:27:21,305; -662
19:27:21,309; -649
19:27:21,312; -676
19:27:21,316; -658
19:27:21,320; -696
19:27:21,324; -657
19:27:21,328; -646
19:27:21,332; -634
19:27:21,336; -663
19:27:21,340; -661
19:27:21,344; -632
19:27:21,348; -648
19:27:21,352; -642
19:27:21,355; -615
19:27:21,359; -615
19:27:21,363; -608
19:27:21,367; -623
19:27:21,371; -605
19:27:21,375; -609
19:27:21,379; -602
19:27:21,383; -597
19:27:21,387; -580
19:27:21,391; -566
19:27:21,395; -567
19:27:21,398; -555
19:27:21,402; -547
19:27:21,406; -542
19:27:21,410; -515
19:27:21,414; -515
19:27:21,418; -504
19:27:21,422; -480
19:27:21,426; -468
19:27:21,430; -458
19:27:21,434; -437
19:27:21,438; -411
19:27:21,441; -391
19:27:21,445; -382
19:27:21,449; -349
19:27:21,453; -323
19:27:21,457; -283
19:27:21,461; -293
19:27:21,465; -261
19:27:21,469; -242
19:27:21,473; -233
19:27:21,477; -210
19:27:21,480; -206
19:27:21,484; -173
19:27:21,488; -166
19:27:21,492; -171
19:27:21,496; -164
19:27:21,500; -197
19:27:21,504; -204
19:27:21,508; -216
19:27:21,512; -269
19:27:21,516; -283
19:27:21,520; -324
19:27:21,523; -350
19:27:21,527; -391
19:27:21,531; -445
19:27:21,535; -449
19:27:21,539; -466
19:27:21,543; -498
19:27:21,547; -536
19:27:21,551; -534
19:27:21,555; -525
19:27:21,559; -559
19:27:21,562; -561
19:27:21,566; -571
19:27:21,570; -573
19:27:21,574; -587
19:27:21,578; -596
19:27:21,582; -569
19:27:21,586; -565
19:27:21,590; -571
19:27:21,594; -562
19:27:21,598; -549
19:27:21,602; -559
19:27:21,605; -557
19:27:21,609; -534
19:27:21,613; -553
19:27:21,617; -561
19:27:21,621; -555
19:27:21,625; -551
19:27:21,629; -545
19:27:21,633; -555
19:27:21,637; -556
19:27:21,641; -571
19:27:21,645; -547
19:27:21,648; -569
19:27:21,652; -573
19:27:21,656; -557
19:27:21,660; -552
19:27:21,664; -587
19:27:21,668; -578
19:27:21,672; -573
19:27:21,676; -581
19:27:21,680; -590
19:27:21,684; -575
19:27:21,688; -582
19:27:21,691; -586
19:27:21,695; -582
19:27:21,699; -610
19:27:21,703; -600
19:27:21,707; -595
19:27:21,711; -591
19:27:21,715; -620
19:27:21,719; -603
19:27:21,723; -596
19:27:21,727; -609
19:27:21,730; -594
19:27:21,734; -594
19:27:21,738; -575
19:27:21,742; -586
19:27:21,746; -563
19:27:21,750; -540
19:27:21,754; -532
19:27:21,758; -510
19:27:21,762; -488
19:27:21,766; -495
19:27:21,770; -464
19:27:21,773; -471
19:27:21,777; -464
19:27:21,781; -464
19:27:21,785; -482
19:27:21,789; -477
19:27:21,793; -505
19:27:21,797; -510
19:27:21,801; -514
19:27:21,805; -523
19:27:21,809; -545
19:27:21,812; -572
19:27:21,816; -586
19:27:21,820; -600
19:27:21,824; -646
19:27:21,828; -659
19:27:21,832; -654
19:27:21,836; -651
19:27:21,840; -659
19:27:21,844; -664
19:27:21,848; -642
19:27:21,852; -657
19:27:21,855; -650
19:27:21,859; -662
19:27:21,863; -630
19:27:21,867; -653
19:27:21,871; -639
19:27:21,875; -632
19:27:21,879; -642
19:27:21,883; -645
19:27:21,887; -673
19:27:21,891; -686
19:27:21,895; -655
19:27:21,898; -593
19:27:21,902; -431
19:27:21,906; -119
19:27:21,910; 336
19:27:21,914; 886
19:27:21,918; 1313
19:27:21,922; 1775
19:27:21,926; 1718
19:27:21,930; 1554
19:27:21,934; 1089
19:27:21,938; 351
19:27:21,941; -330
19:27:21,945; -680
19:27:21,949; -788
19:27:21,953; -827
19:27:21,957; -698
19:27:21,961; -526
19:27:21,965; -539
19:27:21,969; -618
19:27:21,973; -633
19:27:21,977; -692
19:27:21,980; -623
19:27:21,984; -573
19:27:21,988; -604
19:27:21,992; -631
19:27:21,996; -614
19:27:22,000; -606
19:27:22,004; -622
19:27:22,008; -588
19:27:22,012; -603
19:27:22,016; -593
19:27:22,020; -590
19:27:22,023; -600
19:27:22,027; -599
19:27:22,031; -586
19:27:22,035; -572
19:27:22,039; -572
19:27:22,043; -569
19:27:22,047; -561
19:27:22,051; -578
19:27:22,055; -562
19:27:22,059; -553
19:27:22,062; -544
19:27:22,066; -536
19:27:22,070; -522
19:27:22,074; -530
19:27:22,078; -540
19:27:22,082; -515
19:27:22,086; -511
19:27:22,090; -491
19:27:22,094; -483
19:27:22,098; -482
19:27:22,102; -459
19:27:22,105; -454
19:27:22,109; -452
19:27:22,113; -422
19:27:22,117; -403
19:27:22,121; -387
19:27:22,125; -366
19:27:22,129; -329
19:27:22,133; -336
19:27:22,137; -312
19:27:22,141; -278
19:27:22,145; -261
19:27:22,148; -240
19:27:22,152; -221
19:27:22,156; -175
19:27:22,160; -171
19:27:22,164; -147
19:27:22,168; -134
19:27:22,172; -127
19:27:22,176; -87
19:27:22,180; -99
19:27:22,184; -95
19:27:22,188; -101
19:27:22,191; -108
19:27:22,195; -130
19:27:22,199; -166
19:27:22,203; -182
19:27:22,207; -221
19:27:22,211; -253
19:27:22,215; -288
19:27:22,219; -336
19:27:22,223; -356
19:27:22,227; -395
19:27:22,230; -419
19:27:22,234; -445
19:27:22,238; -448
19:27:22,242; -487
19:27:22,246; -492
19:27:22,250; -489
19:27:22,254; -517
19:27:22,258; -507
19:27:22,262; -521
19:27:22,266; -535
19:27:22,270; -508
19:27:22,273; -505
19:27:22,277; -500
19:27:22,281; -501
19:27:22,285; -492
19:27:22,289; -496
19:27:22,293; -501
19:27:22,297; -485
19:27:22,301; -481
19:27:22,305; -482
19:27:22,309; -486
19:27:22,313; -491
19:27:22,316; -485
19:27:22,320; -489
19:27:22,324; -471
19:27:22,328; -480
19:27:22,332; -482
19:27:22,336; -472
19:27:22,340; -490
19:27:22,344; -487
19:27:22,348; -485
19:27:22,352; -483
19:27:22,355; -488
19:27:22,359; -503
19:27:22,363; -498
19:27:22,367; -490
19:27:22,371; -517
19:27:22,375; -513
19:27:22,379; -508
19:27:22,383; -506
19:27:22,387; -512
19:27:22,391; -518
19:27:22,395; -514
19:27:22,398; -510
19:27:22,402; -506
19:27:22,406; -514
19:27:22,410; -487
19:27:22,414; -466
19:27:22,418; -462
19:27:22,422; -437
19:27:22,426; -428
19:27:22,430; -410
19:27:22,434; -432
19:27:22,438; -404
19:27:22,441; -398
19:27:22,445; -390
19:27:22,449; -374
19:27:22,453; -402
19:27:22,457; -401
19:27:22,461; -423
19:27:22,465; -431
19:27:22,469; -445
19:27:22,473; -442
19:27:22,477; -458
19:27:22,480; -491
19:27:22,484; -511
19:27:22,488; -541
19:27:22,492; -567
19:27:22,496; -569
19:27:22,500; -581
19:27:22,504; -573
19:27:22,508; -581
19:27:22,512; -570
19:27:22,516; -580
19:27:22,520; -580
19:27:22,523; -585
19:27:22,527; -594
19:27:22,531; -590
19:27:22,535; -588
19:27:22,539; -590
19:27:22,543; -572
19:27:22,547; -576
19:27:22,551; -561
19:27:22,555; -576
19:27:22,559; -616
19:27:22,563; -620
19:27:22,566; -611
19:27:22,570; -563
19:27:22,574; -453
19:27:22,578; -205
19:27:22,582; 329
19:27:22,586; 1025
19:27:22,590; 1403
19:27:22,594; 1893
19:27:22,598; 1950
19:27:22,602; 1758
19:27:22,605; 1002
19:27:22,609; 332
19:27:22,613; -372
19:27:22,617; -647
19:27:22,621; -797
19:27:22,625; -760
19:27:22,629; -562
19:27:22,633; -401
19:27:22,637; -464
19:27:22,641; -480
19:27:22,645; -636
19:27:22,648; -559
19:27:22,652; -585
19:27:22,656; -564
19:27:22,660; -561
19:27:22,664; -585
19:27:22,668; -580
19:27:22,672; -590
19:27:22,676; -554
19:27:22,680; -599
19:27:22,684; -569
19:27:22,688; -562
19:27:22,691; -566
19:27:22,695; -546
19:27:22,699; -575
19:27:22,703; -557
19:27:22,707; -535
19:27:22,711; -554
19:27:22,715; -549
19:27:22,719; -529
19:27:22,723; -542
19:27:22,727; -542
19:27:22,730; -524
19:27:22,734; -512
19:27:22,738; -507
19:27:22,742; -507
19:27:22,746; -511
19:27:22,750; -505
19:27:22,754; -516
19:27:22,758; -510
19:27:22,762; -491
19:27:22,766; -474
19:27:22,770; -475
19:27:22,773; -458
19:27:22,777; -461
19:27:22,781; -462
19:27:22,785; -427
19:27:22,789; -407
19:27:22,793; -380
19:27:22,797; -339
19:27:22,801; -335
19:27:22,805; -325
19:27:22,809; -308
19:27:22,812; -309
19:27:22,816; -280
19:27:22,820; -270
19:27:22,824; -232
19:27:22,828; -222
19:27:22,832; -188
19:27:22,836; -160
19:27:22,840; -170
19:27:22,844; -147
19:27:22,848; -141
19:27:22,852; -118
19:27:22,855; -100
19:27:22,859; -103
19:27:22,863; -133
19:27:22,867; -165
19:27:22,871; -212
19:27:22,875; -239
19:27:22,879; -283
19:27:22,883; -300
19:27:22,887; -331
19:27:22,891; -357
19:27:22,895; -380
19:27:22,898; -423
19:27:22,902; -433
19:27:22,906; -450
19:27:22,910; -490
19:27:22,914; -513
19:27:22,918; -527
19:27:22,922; -515
19:27:22,926; -536
19:27:22,930; -509
19:27:22,934; -517
19:27:22,938; -525
19:27:22,941; -533
19:27:22,945; -542
19:27:22,949; -535
19:27:22,953; -536
19:27:22,957; -526
19:27:22,961; -514
19:27:22,965; -526
19:27:22,969; -532
19:27:22,973; -526
19:27:22,977; -527
19:27:22,980; -537
19:27:22,984; -509
19:27:22,988; -511
19:27:22,992; -514
19:27:22,996; -517
19:27:23,000; -516
19:27:23,004; -507
19:27:23,008; -518
19:27:23,012; -518
19:27:23,016; -522
19:27:23,020; -515
19:27:23,023; -531
19:27:23,027; -539
19:27:23,031; -527
19:27:23,035; -553
19:27:23,039; -553
19:27:23,043; -547
19:27:23,047; -558
19:27:23,051; -570
19:27:23,055; -551
19:27:23,059; -572
19:27:23,062; -558
19:27:23,066; -572
19:27:23,070; -572
19:27:23,074; -554
19:27:23,078; -554
19:27:23,082; -519
19:27:23,086; -505
19:27:23,090; -467
19:27:23,094; -448
19:27:23,098; -449
19:27:23,102; -447
19:27:23,105; -421
19:27:23,109; -450
19:27:23,113; -437
19:27:23,117; -454
19:27:23,121; -460
19:27:23,125; -464
19:27:23,129; -473
19:27:23,133; -494
19:27:23,137; -480
19:27:23,141; -489
19:27:23,145; -512
19:27:23,148; -554
19:27:23,152; -561
19:27:23,156; -582
19:27:23,160; -636
19:27:23,164; -629
19:27:23,168; -625
19:27:23,172; -635
19:27:23,176; -613
19:27:23,180; -617
19:27:23,184; -608
19:27:23,188; -631
19:27:23,191; -634
19:27:23,195; -631
19:27:23,199; -645
19:27:23,203; -638
19:27:23,207; -621
19:27:23,211; -622
19:27:23,215; -614
19:27:23,219; -628
19:27:23,223; -646
19:27:23,227; -676
19:27:23,230; -647
19:27:23,234; -592
19:27:23,238; -426
19:27:23,242; -69
19:27:23,246; 389
19:27:23,250; 972
19:27:23,254; 1548
19:27:23,258; 1856
19:27:23,262; 1948
19:27:23,266; 1868
19:27:23,270; 1306
19:27:23,273; 358
19:27:23,277; -316
19:27:23,281; -659
19:27:23,285; -839
19:27:23,289; -802
19:27:23,293; -708
19:27:23,297; -462
19:27:23,301; -450
19:27:23,305; -635
19:27:23,309; -692
19:27:23,312; -578
19:27:23,316; -612
19:27:23,320; -583
19:27:23,324; -580
19:27:23,328; -616
19:27:23,332; -608
19:27:23,336; -565
19:27:23,340; -571
19:27:23,344; -614
19:27:23,348; -614
19:27:23,352; -614
19:27:23,355; -605
19:27:23,359; -615
19:27:23,363; -605
19:27:23,367; -600
19:27:23,371; -593
19:27:23,375; -608
19:27:23,379; -596
19:27:23,383; -583
19:27:23,387; -597
19:27:23,391; -562
19:27:23,395; -569
19:27:23,398; -566
19:27:23,402; -584
19:27:23,406; -569
19:27:23,410; -562
19:27:23,414; -548
19:27:23,418; -553
19:27:23,422; -538
19:27:23,426; -537
19:27:23,430; -524
19:27:23,434; -510
19:27:23,438; -504
19:27:23,441; -491
19:27:23,445; -487
19:27:23,449; -465
19:27:23,453; -441
19:27:23,457; -422
19:27:23,461; -403
19:27:23,465; -394
19:27:23,469; -370
19:27:23,473; -349
19:27:23,477; -332
19:27:23,480; -305
19:27:23,484; -283
19:27:23,488; -274
19:27:23,492; -276
19:27:23,496; -251
19:27:23,500; -209
19:27:23,504; -211
19:27:23,508; -177
19:27:23,512; -162
19:27:23,516; -159
19:27:23,520; -175
19:27:23,523; -190
19:27:23,527; -189
19:27:23,531; -224
19:27:23,535; -246
19:27:23,539; -286
19:27:23,543; -298
19:27:23,547; -347
19:27:23,551; -391
19:27:23,555; -394
19:27:23,559; -447
19:27:23,562; -464
19:27:23,566; -481
19:27:23,570; -500
19:27:23,574; -504
19:27:23,578; -529
19:27:23,582; -557
19:27:23,586; -567
19:27:23,590; -560
19:27:23,594; -572
19:27:23,598; -567
19:27:23,602; -546
19:27:23,605; -540
19:27:23,609; -559
19:27:23,613; -583
19:27:23,617; -572
19:27:23,621; -568
19:27:23,625; -572
19:27:23,629; -556
19:27:23,633; -521
19:27:23,637; -530
19:27:23,641; -534
19:27:23,645; -528
19:27:23,648; -533
19:27:23,652; -556
19:27:23,656; -523
19:27:23,660; -519
19:27:23,664; -515
19:27:23,668; -491
19:27:23,672; -518
19:27:23,676; -535
19:27:23,680; -539
19:27:23,684; -526
19:27:23,688; -564
19:27:23,691; -537
19:27:23,695; -516
19:27:23,699; -540
19:27:23,703; -540
19:27:23,707; -539
19:27:23,711; -538
19:27:23,715; -538
19:27:23,719; -527
19:27:23,723; -569
19:27:23,727; -566
19:27:23,730; -552
19:27:23,734; -560
19:27:23,738; -572
19:27:23,742; -509
19:27:23,746; -508
19:27:23,750; -515
19:27:23,754; -488
19:27:23,758; -471
19:27:23,762; -445
19:27:23,766; -449
19:27:23,770; -415
19:27:23,773; -435
19:27:23,777; -428
19:27:23,781; -442
19:27:23,785; -469
19:27:23,789; -458
19:27:23,793; -481
19:27:23,797; -492
19:27:23,801; -489
19:27:23,805; -487
19:27:23,809; -502
19:27:23,812; -554
19:27:23,816; -554
19:27:23,820; -607
19:27:23,824; -646
19:27:23,828; -640
19:27:23,832; -635
19:27:23,836; -631
19:27:23,840; -623
19:27:23,844; -628
19:27:23,848; -632
19:27:23,852; -621
19:27:23,855; -654
19:27:23,859; -627
19:27:23,863; -623
19:27:23,867; -629
19:27:23,871; -608
19:27:23,875; -596
19:27:23,879; -651
19:27:23,883; -619
19:27:23,887; -661
19:27:23,891; -665
19:27:23,895; -634
19:27:23,898; -563
19:27:23,902; -426
19:27:23,906; -135
19:27:23,910; 462
19:27:23,914; 894
19:27:23,918; 1562
19:27:23,922; 1913
19:27:23,926; 2119
19:27:23,930; 2001
19:27:23,934; 1419
19:27:23,938; 713
19:27:23,941; -36
19:27:23,945; -647
19:27:23,949; -780
19:27:23,953; -849
19:27:23,957; -588
19:27:23,961; -512
19:27:23,965; -467
19:27:23,969; -559
19:27:23,973; -617
19:27:23,977; -702
19:27:23,980; -609
19:27:23,984; -596
19:27:23,988; -564
19:27:23,992; -632
19:27:23,996; -668
19:27:24,000; -632
19:27:24,004; -608
19:27:24,008; -627
19:27:24,012; -637
19:27:24,016; -624
19:27:24,020; -622
19:27:24,023; -612
19:27:24,027; -635
19:27:24,031; -610
19:27:24,035; -594
19:27:24,039; -601
19:27:24,043; -571
19:27:24,047; -605
19:27:24,051; -607
19:27:24,055; -582
19:27:24,059; -607
19:27:24,063; -587
19:27:24,066; -585
19:27:24,070; -580
19:27:24,074; -568
19:27:24,078; -544
19:27:24,082; -554
19:27:24,086; -566
19:27:24,090; -515
19:27:24,094; -527
19:27:24,098; -506
19:27:24,102; -517
19:27:24,105; -488
19:27:24,109; -446
19:27:24,113; -473
19:27:24,117; -445
19:27:24,121; -407
19:27:24,125; -379
19:27:24,129; -353
19:27:24,133; -361
19:27:24,137; -343
19:27:24,141; -309
19:27:24,145; -291
19:27:24,148; -255
19:27:24,152; -235
19:27:24,156; -191
19:27:24,160; -209
19:27:24,164; -176
19:27:24,168; -155
19:27:24,172; -161
19:27:24,176; -144
19:27:24,180; -127
19:27:24,184; -143
19:27:24,188; -158
19:27:24,191; -158
19:27:24,195; -196
19:27:24,199; -250
19:27:24,203; -295
19:27:24,207; -306
19:27:24,211; -361
19:27:24,215; -378
19:27:24,219; -377
19:27:24,223; -419
19:27:24,227; -444
19:27:24,230; -502
19:27:24,234; -500
19:27:24,238; -517
19:27:24,242; -572
19:27:24,246; -558
19:27:24,250; -530
19:27:24,254; -544
19:27:24,258; -577
19:27:24,262; -564
19:27:24,266; -561
19:27:24,270; -571
19:27:24,273; -606
19:27:24,277; -569
19:27:24,281; -555
19:27:24,285; -573
19:27:24,289; -566
19:27:24,293; -577
19:27:24,297; -551
19:27:24,301; -542
19:27:24,305; -556
19:27:24,309; -539
19:27:24,312; -547
19:27:24,316; -516
19:27:24,320; -527
19:27:24,324; -507
19:27:24,328; -534
19:27:24,332; -518
19:27:24,336; -514
19:27:24,340; -530
19:27:24,344; -540
19:27:24,348; -519
19:27:24,352; -525
19:27:24,355; -533
19:27:24,359; -516
19:27:24,363; -514
19:27:24,367; -524
19:27:24,371; -518
19:27:24,375; -510
19:27:24,379; -556
19:27:24,383; -527
19:27:24,387; -531
19:27:24,391; -565
19:27:24,395; -553
19:27:24,398; -579
19:27:24,402; -568
19:27:24,406; -572
19:27:24,410; -555
19:27:24,414; -576
19:27:24,418; -573
19:27:24,422; -562
19:27:24,426; -585
19:27:24,430; -591
19:27:24,434; -603
19:27:24,438; -578
19:27:24,441; -604
19:27:24,445; -616
19:27:24,449; -590
19:27:24,453; -592
19:27:24,457; -582
19:27:24,461; -634
19:27:24,465; -631
19:27:24,469; -577
19:27:24,473; -609
19:27:24,477; -612
19:27:24,480; -568
19:27:24,484; -551
19:27:24,488; -548
19:27:24,492; -516
19:27:24,496; -511
19:27:24,500; -499
19:27:24,504; -453
19:27:24,508; -465
19:27:24,512; -513
19:27:24,516; -477
19:27:24,520; -504
19:27:24,523; -509
19:27:24,527; -534
19:27:24,531; -534
19:27:24,535; -522
19:27:24,539; -511
19:27:24,543; -514
19:27:24,547; -534
19:27:24,551; -560
19:27:24,555; -575
19:27:24,559; -614
19:27:24,562; -643
19:27:24,566; -644
19:27:24,570; -643
19:27:24,574; -629
19:27:24,578; -671
19:27:24,582; -659
19:27:24,586; -681
19:27:24,590; -657
19:27:24,594; -652
19:27:24,598; -643
19:27:24,602; -643
19:27:24,605; -656
19:27:24,609; -629
19:27:24,613; -657
19:27:24,617; -634
19:27:24,621; -654
19:27:24,625; -660
19:27:24,629; -645
19:27:24,633; -662
19:27:24,637; -633
19:27:24,641; -551
19:27:24,645; -375
19:27:24,648; -11
19:27:24,652; 762
19:27:24,656; 1558
19:27:24,660; 1845
19:27:24,664; 2272
19:27:24,668; 2117
19:27:24,672; 1342
19:27:24,676; 590
19:27:24,680; -304
19:27:24,684; -545
19:27:24,688; -678
19:27:24,691; -673
19:27:24,695; -624
19:27:24,699; -401
19:27:24,703; -490
19:27:24,707; -630
19:27:24,711; -725
19:27:24,715; -662
19:27:24,719; -606
19:27:24,723; -635
19:27:24,727; -655
19:27:24,730; -631
19:27:24,734; -631
19:27:24,738; -661
19:27:24,742; -608
19:27:24,746; -622
19:27:24,750; -646
19:27:24,754; -641
19:27:24,758; -638
19:27:24,762; -618
19:27:24,766; -616
19:27:24,770; -640
19:27:24,773; -611
19:27:24,777; -608
19:27:24,781; -621
19:27:24,785; -586
19:27:24,789; -580
19:27:24,793; -593
19:27:24,797; -588
19:27:24,801; -569
19:27:24,805; -556
19:27:24,809; -570
19:27:24,812; -554
19:27:24,816; -530
19:27:24,820; -545
19:27:24,824; -536
19:27:24,828; -516
19:27:24,832; -517
19:27:24,836; -475
19:27:24,840; -485
19:27:24,844; -474
19:27:24,848; -455
19:27:24,852; -435
19:27:24,855; -406
19:27:24,859; -384
19:27:24,863; -368
19:27:24,867; -342
19:27:24,871; -314
19:27:24,875; -297
19:27:24,879; -279
19:27:24,883; -253
19:27:24,887; -221
19:27:24,891; -196
19:27:24,895; -187
19:27:24,898; -156
19:27:24,902; -129
19:27:24,906; -110
19:27:24,910; -87
19:27:24,914; -87
19:27:24,918; -95
19:27:24,922; -86
19:27:24,926; -107
19:27:24,930; -121
19:27:24,934; -152
19:27:24,938; -192
19:27:24,941; -207
19:27:24,945; -250
19:27:24,949; -288
19:27:24,953; -335
19:27:24,957; -327
19:27:24,961; -372
19:27:24,965; -425
19:27:24,969; -432
19:27:24,973; -439
19:27:24,977; -463
19:27:24,980; -476
19:27:24,984; -486
19:27:24,988; -486
19:27:24,992; -514
19:27:24,996; -514
19:27:25,000; -513
19:27:25,004; -502
19:27:25,008; -506
19:27:25,012; -499
19:27:25,016; -482
19:27:25,020; -514
19:27:25,023; -500
19:27:25,027; -505
19:27:25,031; -503
19:27:25,035; -498
19:27:25,039; -500
19:27:25,043; -506
19:27:25,047; -493
19:27:25,051; -480
19:27:25,055; -489
19:27:25,059; -468
19:27:25,062; -467
19:27:25,066; -463
19:27:25,070; -453
19:27:25,074; -453
19:27:25,078; -480
19:27:25,082; -455
19:27:25,086; -465
19:27:25,090; -453
19:27:25,094; -467
19:27:25,098; -444
19:27:25,102; -438
19:27:25,105; -461
19:27:25,109; -446
19:27:25,113; -474
19:27:25,117; -466
19:27:25,121; -460
19:27:25,125; -477
19:27:25,129; -465
19:27:25,133; -449
19:27:25,137; -465
19:27:25,141; -488
19:27:25,145; -473
19:27:25,148; -483
19:27:25,152; -504
19:27:25,156; -479
19:27:25,160; -478
19:27:25,164; -493
19:27:25,168; -504
19:27:25,172; -501
19:27:25,176; -498
19:27:25,180; -503
19:27:25,184; -506
19:27:25,188; -488
19:27:25,191; -512
19:27:25,195; -491
19:27:25,199; -511
19:27:25,203; -507
19:27:25,207; -492
19:27:25,211; -511
19:27:25,215; -508
19:27:25,219; -509
19:27:25,223; -490
19:27:25,227; -495
19:27:25,230; -485
19:27:25,234; -505
19:27:25,238; -509
19:27:25,242; -504
19:27:25,246; -512
19:27:25,250; -497
19:27:25,254; -509
19:27:25,258; -507
19:27:25,262; -495
19:27:25,266; -504
19:27:25,270; -505
19:27:25,273; -501
19:27:25,277; -490
19:27:25,281; -507
19:27:25,285; -509
19:27:25,289; -502
19:27:25,293; -511
19:27:25,297; -503
19:27:25,301; -505
19:27:25,305; -530
19:27:25,309; -500
19:27:25,312; -509
19:27:25,316; -509
19:27:25,320; -503
19:27:25,324; -507
19:27:25,328; -507
19:27:25,332; -501
19:27:25,336; -509
19:27:25,340; -515
19:27:25,344; -491
19:27:25,348; -516
19:27:25,352; -512
19:27:25,355; -506
19:27:25,359; -518
19:27:25,363; -491
19:27:25,367; -502
19:27:25,371; -515
19:27:25,375; -501
19:27:25,379; -498
19:27:25,383; -499
19:27:25,387; -507
19:27:25,391; -492
19:27:25,395; -497
19:27:25,398; -522
19:27:25,402; -514
19:27:25,406; -506
19:27:25,410; -497
19:27:25,414; -513
19:27:25,418; -499
19:27:25,422; -499
19:27:25,426; -507
19:27:25,430; -506
19:27:25,434; -505
19:27:25,437; -492
19:27:25,441; -505
19:27:25,445; -500
19:27:25,449; -496
19:27:25,453; -500
19:27:25,457; -486
19:27:25,461; -486
19:27:25,465; -499
19:27:25,469; -504
19:27:25,473; -509
19:27:25,477; -485
19:27:25,480; -488
19:27:25,484; -495
19:27:25,488; -476
19:27:25,492; -491
19:27:25,496; -492
19:27:25,500; -498
19:27:25,504; -485
19:27:25,508; -478
19:27:25,512; -493
19:27:25,516; -483
19:27:25,520; -488
19:27:25,523; -483
19:27:25,527; -489
19:27:25,531; -480
19:27:25,535; -482
19:27:25,539; -493
19:27:25,543; -469
19:27:25,547; -476
19:27:25,551; -437
19:27:25,555; -415
19:27:25,559; -427
19:27:25,563; -415
19:27:25,566; -375
19:27:25,570; -380
19:27:25,574; -362
19:27:25,578; -346
19:27:25,582; -333
19:27:25,586; -356
19:27:25,590; -348
19:27:25,594; -383
19:27:25,598; -379
19:27:25,602; -384
19:27:25,605; -385
19:27:25,609; -388
19:27:25,613; -404
19:27:25,617; -413
19:27:25,621; -408
19:27:25,625; -435
19:27:25,629; -475
19:27:25,633; -453
19:27:25,637; -459
19:27:25,641; -498
19:27:25,645; -483
19:27:25,648; -478
19:27:25,652; -484
19:27:25,656; -478
19:27:25,660; -483
19:27:25,664; -497
19:27:25,668; -482
19:27:25,672; -492
19:27:25,676; -490
19:27:25,680; -470
19:27:25,684; -465
19:27:25,688; -486
19:27:25,691; -489
19:27:25,695; -440
19:27:25,699; -353
19:27:25,703; -179
19:27:25,707; 184
19:27:25,711; 631
19:27:25,715; 1188
19:27:25,719; 1756
19:27:25,723; 2077
19:27:25,727; 2180
19:27:25,730; 1998
19:27:25,734; 1531
19:27:25,738; 581
19:27:25,742; -92
19:27:25,746; -392
19:27:25,750; -746
19:27:25,754; -521
19:27:25,758; -529
19:27:25,762; -281
19:27:25,766; -337
19:27:25,770; -470
19:27:25,773; -478
19:27:25,777; -546
19:27:25,781; -442
19:27:25,785; -464
19:27:25,789; -431
19:27:25,793; -501
19:27:25,797; -468
19:27:25,801; -432
19:27:25,805; -447
19:27:25,809; -456
19:27:25,812; -483
19:27:25,816; -482
19:27:25,820; -445
19:27:25,824; -490
19:27:25,828; -439
19:27:25,832; -452
19:27:25,836; -433
19:27:25,840; -441
19:27:25,844; -438
19:27:25,848; -423
19:27:25,852; -412
19:27:25,855; -408
19:27:25,859; -413
19:27:25,863; -407
19:27:25,867; -406
19:27:25,871; -399
19:27:25,875; -402
19:27:25,879; -409
19:27:25,883; -388
19:27:25,887; -379
19:27:25,891; -371
19:27:25,895; -363
19:27:25,898; -352
19:27:25,902; -347
19:27:25,906; -337
19:27:25,910; -325
19:27:25,914; -311
19:27:25,918; -301
19:27:25,922; -270
19:27:25,926; -249
19:27:25,930; -254
19:27:25,934; -223
19:27:25,938; -198
19:27:25,941; -178
19:27:25,945; -167
19:27:25,949; -132
19:27:25,953; -107
19:27:25,957; -89
19:27:25,961; -78
19:27:25,965; -64
19:27:25,969; -17
19:27:25,973; -4
19:27:25,977; 2
19:27:25,980; 20
19:27:25,984; 47
19:27:25,988; 47
19:27:25,992; 29
19:27:25,996; 35
19:27:26,000; 34
19:27:26,004; 11
19:27:26,008; -18
19:27:26,012; -51
19:27:26,016; -59
19:27:26,020; -94
19:27:26,023; -122
19:27:26,027; -161
19:27:26,031; -179
19:27:26,035; -194
19:27:26,039; -261
19:27:26,043; -269
19:27:26,047; -299
19:27:26,051; -325
19:27:26,055; -328
19:27:26,059; -349
19:27:26,062; -353
19:27:26,066; -361
19:27:26,070; -350
19:27:26,074; -368
19:27:26,078; -350
19:27:26,082; -365
19:27:26,086; -357
19:27:26,090; -345
19:27:26,094; -367
19:27:26,098; -351
19:27:26,102; -348
19:27:26,105; -355
19:27:26,109; -352
19:27:26,113; -341
19:27:26,117; -348
19:27:26,121; -339
19:27:26,125; -345
19:27:26,129; -342
19:27:26,133; -353
19:27:26,137; -352
19:27:26,141; -328
19:27:26,145; -357
19:27:26,148; -340
19:27:26,152; -341
19:27:26,156; -357
19:27:26,160; -359
19:27:26,164; -359
19:27:26,168; -337
19:27:26,172; -362
19:27:26,176; -354
19:27:26,180; -374
19:27:26,184; -372
19:27:26,188; -378
19:27:26,191; -376
19:27:26,195; -374
19:27:26,199; -379
19:27:26,203; -384
19:27:26,207; -391
19:27:26,211; -391
19:27:26,215; -386
19:27:26,219; -397
19:27:26,223; -390
19:27:26,227; -401
19:27:26,230; -404
19:27:26,234; -421
19:27:26,238; -409
19:27:26,242; -412
19:27:26,246; -434
19:27:26,250; -430
19:27:26,254; -413
19:27:26,258; -419
19:27:26,262; -409
19:27:26,266; -418
19:27:26,270; -419
19:27:26,273; -438
19:27:26,277; -428
19:27:26,281; -437
19:27:26,285; -428
19:27:26,289; -435
19:27:26,293; -433
19:27:26,297; -431
19:27:26,301; -441
19:27:26,305; -449
19:27:26,309; -429
19:27:26,312; -437
19:27:26,316; -428
19:27:26,320; -442
19:27:26,324; -439
19:27:26,328; -430
19:27:26,332; -434
19:27:26,336; -447
19:27:26,340; -426
19:27:26,344; -441
19:27:26,348; -436
19:27:26,352; -450
19:27:26,355; -452
19:27:26,359; -458
19:27:26,363; -435
19:27:26,367; -455
19:27:26,371; -458
19:27:26,375; -442
19:27:26,379; -450
19:27:26,383; -437
19:27:26,387; -451
19:27:26,391; -441
19:27:26,395; -436
19:27:26,398; -447
19:27:26,402; -440
19:27:26,406; -459
19:27:26,410; -441
19:27:26,414; -426
19:27:26,418; -443
19:27:26,422; -451
19:27:26,426; -452
19:27:26,430; -453
19:27:26,434; -456
19:27:26,438; -455
19:27:26,441; -452
19:27:26,445; -422
19:27:26,449; -440
19:27:26,453; -457
19:27:26,457; -447
19:27:26,461; -470
19:27:26,465; -464
19:27:26,469; -453
19:27:26,473; -444
19:27:26,477; -423
19:27:26,480; -455
19:27:26,484; -436
19:27:26,488; -438
19:27:26,492; -436
19:27:26,496; -427
19:27:26,500; -406
19:27:26,504; -391
19:27:26,508; -363
19:27:26,512; -356
19:27:26,516; -346
19:27:26,520; -316
19:27:26,523; -295
19:27:26,527; -300
19:27:26,531; -309
19:27:26,535; -310
19:27:26,539; -331
19:27:26,543; -336
19:27:26,547; -357
19:27:26,551; -365
19:27:26,555; -365
19:27:26,559; -369
19:27:26,562; -396
19:27:26,566; -421
19:27:26,570; -434
19:27:26,574; -431
19:27:26,578; -487
19:27:26,582; -460
19:27:26,586; -454
19:27:26,590; -463
19:27:26,594; -459
19:27:26,598; -460
19:27:26,602; -446
19:27:26,605; -473
19:27:26,609; -466
19:27:26,613; -462
19:27:26,617; -467
19:27:26,621; -447
19:27:26,625; -451
19:27:26,629; -444
19:27:26,633; -493
19:27:26,637; -473
19:27:26,641; -456
19:27:26,645; -378
19:27:26,648; -193
19:27:26,652; 178
19:27:26,656; 748
19:27:26,660; 1173
19:27:26,664; 1819
19:27:26,668; 2016
19:27:26,672; 1971
19:27:26,676; 1841
19:27:26,680; 1135
19:27:26,684; 508
19:27:26,688; -263
19:27:26,691; -496
19:27:26,695; -652
19:27:26,699; -658
19:27:26,703; -462
19:27:26,707; -381
19:27:26,711; -300
19:27:26,715; -455
19:27:26,719; -459
19:27:26,723; -483
19:27:26,727; -459
19:27:26,730; -411
19:27:26,734; -430
19:27:26,738; -487
19:27:26,742; -430
19:27:26,746; -431
19:27:26,750; -448
19:27:26,754; -407
19:27:26,758; -452
19:27:26,762; -449
19:27:26,766; -410
19:27:26,770; -430
19:27:26,773; -431
19:27:26,777; -429
19:27:26,781; -412
19:27:26,785; -428
19:27:26,789; -410
19:27:26,793; -401
19:27:26,797; -407
19:27:26,801; -405
19:27:26,805; -383
19:27:26,809; -387
19:27:26,812; -399
19:27:26,816; -376
19:27:26,820; -375
19:27:26,824; -367
19:27:26,828; -360
19:27:26,832; -354
19:27:26,836; -346
19:27:26,840; -332
19:27:26,844; -329
19:27:26,848; -321
19:27:26,852; -309
19:27:26,855; -297
19:27:26,859; -271
19:27:26,863; -265
19:27:26,867; -249
19:27:26,871; -213
19:27:26,875; -191
19:27:26,879; -181
19:27:26,883; -157
19:27:26,887; -126
19:27:26,891; -109
19:27:26,895; -96
19:27:26,898; -87
19:27:26,902; -53
19:27:26,906; -25
19:27:26,910; -17
19:27:26,914; -7
19:27:26,918; 23
19:27:26,922; 28
19:27:26,926; 34
19:27:26,930; 44
19:27:26,934; 62
19:27:26,938; 57
19:27:26,941; 49
19:27:26,945; 25
19:27:26,949; 1
19:27:26,953; -56
19:27:26,957; -65
19:27:26,961; -113
19:27:26,965; -156
19:27:26,969; -170
19:27:26,973; -206
19:27:26,977; -231
19:27:26,980; -271
19:27:26,984; -292
19:27:26,988; -312
19:27:26,992; -347
19:27:26,996; -344
19:27:27,000; -360
19:27:27,004; -356
19:27:27,008; -381
19:27:27,012; -379
19:27:27,016; -377
19:27:27,020; -399
19:27:27,023; -380
19:27:27,027; -378
19:27:27,031; -377
19:27:27,035; -381
19:27:27,039; -380
19:27:27,043; -375
19:27:27,047; -371
19:27:27,051; -372
19:27:27,055; -355
19:27:27,059; -360
19:27:27,062; -367
19:27:27,066; -363
19:27:27,070; -363
19:27:27,074; -350
19:27:27,078; -348
19:27:27,082; -338
19:27:27,086; -337
19:27:27,090; -353
19:27:27,094; -354
19:27:27,098; -350
19:27:27,102; -356
19:27:27,105; -369
19:27:27,109; -363
19:27:27,113; -368
19:27:27,117; -376
19:27:27,121; -370
19:27:27,125; -373
19:27:27,129; -380
19:27:27,133; -378
19:27:27,137; -392
19:27:27,141; -392
19:27:27,145; -390
19:27:27,148; -383
19:27:27,152; -386
19:27:27,156; -406
19:27:27,160; -412
19:27:27,164; -409
19:27:27,168; -411
19:27:27,172; -412
19:27:27,176; -412
19:27:27,180; -414
19:27:27,184; -401
19:27:27,188; -414
19:27:27,191; -440
19:27:27,195; -415
19:27:27,199; -420
19:27:27,203; -435
19:27:27,207; -439
19:27:27,211; -421
19:27:27,215; -420
19:27:27,219; -437
19:27:27,223; -431
19:27:27,227; -432
19:27:27,230; -429
19:27:27,234; -434
19:27:27,238; -436
19:27:27,242; -420
19:27:27,246; -428
19:27:27,250; -445
19:27:27,254; -420
19:27:27,258; -441
19:27:27,262; -439
19:27:27,266; -443
19:27:27,270; -442
19:27:27,273; -445
19:27:27,277; -439
19:27:27,281; -439
19:27:27,285; -434
19:27:27,289; -444
19:27:27,293; -454
19:27:27,297; -458
19:27:27,301; -458
19:27:27,305; -443
19:27:27,309; -434
19:27:27,313; -443
19:27:27,316; -428
19:27:27,320; -447
19:27:27,324; -459
19:27:27,328; -448
19:27:27,332; -456
19:27:27,336; -434
19:27:27,340; -451
19:27:27,344; -441
19:27:27,348; -438
19:27:27,352; -434
19:27:27,355; -436
19:27:27,359; -453
19:27:27,363; -420
19:27:27,367; -442
19:27:27,371; -424
19:27:27,375; -414
19:27:27,379; -395
19:27:27,383; -368
19:27:27,387; -357
19:27:27,391; -353
19:27:27,395; -329
19:27:27,398; -313
19:27:27,402; -282
19:27:27,406; -289
19:27:27,410; -275
19:27:27,414; -270
19:27:27,418; -289
19:27:27,422; -320
19:27:27,426; -336
19:27:27,430; -331
19:27:27,434; -332
19:27:27,438; -340
19:27:27,441; -348
19:27:27,445; -368
19:27:27,449; -383
19:27:27,453; -409
19:27:27,457; -438
19:27:27,461; -445
19:27:27,465; -459
19:27:27,469; -448
19:27:27,473; -455
19:27:27,477; -460
19:27:27,480; -458
19:27:27,484; -445
19:27:27,488; -457
19:27:27,492; -476
19:27:27,496; -462
19:27:27,500; -450
19:27:27,504; -439
19:27:27,508; -438
19:27:27,512; -444
19:27:27,516; -464
19:27:27,520; -492
19:27:27,523; -461
19:27:27,527; -391
19:27:27,531; -245
19:27:27,535; 64
19:27:27,539; 463
19:27:27,543; 979
19:27:27,547; 1628
19:27:27,551; 1812
19:27:27,555; 2063
19:27:27,559; 1928
19:27:27,562; 1381
19:27:27,566; 713
19:27:27,570; 32
19:27:27,574; -505
19:27:27,578; -617
19:27:27,582; -563
19:27:27,586; -462
19:27:27,590; -345
19:27:27,594; -210
19:27:27,598; -334
19:27:27,602; -454
19:27:27,605; -422
19:27:27,609; -419
19:27:27,613; -411
19:27:27,617; -395
19:27:27,621; -414
19:27:27,625; -489
19:27:27,629; -432
19:27:27,633; -412
19:27:27,637; -413
19:27:27,641; -435
19:27:27,645; -407
19:27:27,648; -413
19:27:27,652; -402
19:27:27,656; -402
19:27:27,660; -395
19:27:27,664; -396
19:27:27,668; -394
19:27:27,672; -402
19:27:27,676; -380
19:27:27,680; -396
19:27:27,684; -379
19:27:27,688; -373
19:27:27,691; -377
19:27:27,695; -373
19:27:27,699; -370
19:27:27,703; -351
19:27:27,707; -350
19:27:27,711; -360
19:27:27,715; -335
19:27:27,719; -341
19:27:27,723; -325
19:27:27,727; -321
19:27:27,730; -310
19:27:27,734; -287
19:27:27,738; -277
19:27:27,742; -261
19:27:27,746; -259
19:27:27,750; -230
19:27:27,754; -208
19:27:27,758; -175
19:27:27,762; -178
19:27:27,766; -145
19:27:27,770; -119
19:27:27,773; -99
19:27:27,777; -81
19:27:27,781; -53
19:27:27,785; -29
19:27:27,789; 12
19:27:27,793; 7
19:27:27,797; 42
19:27:27,801; 68
19:27:27,805; 58
19:27:27,809; 89
19:27:27,812; 93
19:27:27,816; 104
19:27:27,820; 100
19:27:27,824; 90
19:27:27,828; 78
19:27:27,832; 39
19:27:27,836; 32
19:27:27,840; -29
19:27:27,844; -71
19:27:27,848; -86
19:27:27,852; -141
19:27:27,855; -168
19:27:27,859; -205
19:27:27,863; -231
19:27:27,867; -258
19:27:27,871; -283
19:27:27,875; -307
19:27:27,879; -317
19:27:27,883; -313
19:27:27,887; -330
19:27:27,891; -346
19:27:27,895; -348
19:27:27,898; -366
19:27:27,902; -350
19:27:27,906; -367
19:27:27,910; -353
19:27:27,914; -347
19:27:27,918; -362
19:27:27,922; -345
19:27:27,926; -339
19:27:27,930; -339
19:27:27,934; -343
19:27:27,938; -337
19:27:27,941; -331
19:27:27,945; -348
19:27:27,949; -326
19:27:27,953; -311
19:27:27,957; -319
19:27:27,961; -316
19:27:27,965; -317
19:27:27,969; -332
19:27:27,973; -331
19:27:27,977; -333
19:27:27,980; -329
19:27:27,984; -335
19:27:27,988; -335
19:27:27,992; -326
19:27:27,996; -336
19:27:28,000; -345
19:27:28,004; -337
19:27:28,008; -352
19:27:28,012; -359
19:27:28,016; -354
19:27:28,020; -359
19:27:28,023; -346
19:27:28,027; -361
19:27:28,031; -368
19:27:28,035; -346
19:27:28,039; -377
19:27:28,043; -368
19:27:28,047; -389
19:27:28,051; -392
19:27:28,055; -382
19:27:28,059; -395
19:27:28,062; -385
19:27:28,066; -387
19:27:28,070; -380
19:27:28,074; -381
19:27:28,078; -393
19:27:28,082; -394
19:27:28,086; -382
19:27:28,090; -391
19:27:28,094; -395
19:27:28,098; -405
19:27:28,102; -407
19:27:28,105; -399
19:27:28,109; -402
19:27:28,113; -404
19:27:28,117; -397
19:27:28,121; -366
19:27:28,125; -364
19:27:28,129; -324
19:27:28,133; -315
19:27:28,137; -306
19:27:28,141; -289
19:27:28,145; -283
19:27:28,148; -280
19:27:28,152; -259
19:27:28,156; -241
19:27:28,160; -245
19:27:28,164; -275
19:27:28,168; -283
19:27:28,172; -315
19:27:28,176; -319
19:27:28,180; -315
19:27:28,184; -316
19:27:28,188; -339
19:27:28,191; -330
19:27:28,195; -351
19:27:28,199; -417
19:27:28,203; -422
19:27:28,207; -425
19:27:28,211; -445
19:27:28,215; -452
19:27:28,219; -438
19:27:28,223; -434
19:27:28,227; -443
19:27:28,230; -446
19:27:28,234; -442
19:27:28,238; -433
19:27:28,242; -440
19:27:28,246; -434
19:27:28,250; -428
19:27:28,254; -433
19:27:28,258; -431
19:27:28,262; -424
19:27:28,266; -432
19:27:28,270; -466
19:27:28,273; -434
19:27:28,277; -386
19:27:28,281; -227
19:27:28,285; 102
19:27:28,289; 517
19:27:28,293; 1042
19:27:28,297; 1563
19:27:28,301; 1958
19:27:28,305; 1929
19:27:28,309; 1808
19:27:28,312; 1303
19:27:28,316; 630
19:27:28,320; -24
19:27:28,324; -490
19:27:28,328; -556
19:27:28,332; -502
19:27:28,336; -431
19:27:28,340; -339
19:27:28,344; -294
19:27:28,348; -309
19:27:28,352; -448
19:27:28,355; -423
19:27:28,359; -403
19:27:28,363; -384
19:27:28,367; -421
19:27:28,371; -442
19:27:28,375; -449
19:27:28,379; -448
19:27:28,383; -364
19:27:28,387; -382
19:27:28,391; -429
19:27:28,395; -394
19:27:28,398; -420
19:27:28,402; -383
19:27:28,406; -386
19:27:28,410; -384
19:27:28,414; -361
19:27:28,418; -381
19:27:28,422; -372
19:27:28,426; -372
19:27:28,430; -362
19:27:28,434; -361
19:27:28,438; -361
19:27:28,441; -356
19:27:28,445; -369
19:27:28,449; -348
19:27:28,453; -354
19:27:28,457; -338
19:27:28,461; -319
19:27:28,465; -335
19:27:28,469; -327
19:27:28,473; -308
19:27:28,477; -291
19:27:28,480; -277
19:27:28,484; -269
19:27:28,488; -256
19:27:28,492; -254
19:27:28,496; -228
19:27:28,500; -216
19:27:28,504; -190
19:27:28,508; -153
19:27:28,512; -141
19:27:28,516; -105
19:27:28,520; -80
19:27:28,523; -69
19:27:28,527; -29
19:27:28,531; -7
19:27:28,535; 0
19:27:28,539; 33
19:27:28,543; 59
19:27:28,547; 64
19:27:28,551; 84
19:27:28,555; 96
19:27:28,559; 113
19:27:28,562; 116
19:27:28,566; 114
19:27:28,570; 113
19:27:28,574; 77
19:27:28,578; 53
19:27:28,582; 23
19:27:28,586; -7
19:27:28,590; -30
19:27:28,594; -77
19:27:28,598; -113
19:27:28,602; -147
19:27:28,605; -199
19:27:28,609; -219
19:27:28,613; -241
19:27:28,617; -251
19:27:28,621; -271
19:27:28,625; -304
19:27:28,629; -301
19:27:28,633; -326
19:27:28,637; -339
19:27:28,641; -353
19:27:28,645; -342
19:27:28,648; -326
19:27:28,652; -347
19:27:28,656; -347
19:27:28,660; -337
19:27:28,664; -337
19:27:28,668; -340
19:27:28,672; -338
19:27:28,676; -313
19:27:28,680; -323
19:27:28,684; -301
19:27:28,688; -332
19:27:28,691; -322
19:27:28,695; -314
19:27:28,699; -332
19:27:28,703; -316
19:27:28,707; -314
19:27:28,711; -321
19:27:28,715; -304
19:27:28,719; -314
19:27:28,723; -291
19:27:28,727; -305
19:27:28,730; -305
19:27:28,734; -305
19:27:28,738; -314
19:27:28,742; -327
19:27:28,746; -338
19:27:28,750; -334
19:27:28,754; -340
19:27:28,758; -335
19:27:28,762; -340
19:27:28,766; -338
19:27:28,770; -340
19:27:28,773; -347
19:27:28,777; -362
19:27:28,781; -343
19:27:28,785; -351
19:27:28,789; -348
19:27:28,793; -357
19:27:28,797; -376
19:27:28,801; -378
19:27:28,805; -371
19:27:28,809; -365
19:27:28,813; -360
19:27:28,816; -351
19:27:28,820; -338
19:27:28,824; -330
19:27:28,828; -310
19:27:28,832; -302
19:27:28,836; -275
19:27:28,840; -269
19:27:28,844; -269
19:27:28,848; -248
19:27:28,852; -233
19:27:28,855; -220
19:27:28,859; -223
19:27:28,863; -245
19:27:28,867; -260
19:27:28,871; -266
19:27:28,875; -267
19:27:28,879; -289
19:27:28,883; -286
19:27:28,887; -308
19:27:28,891; -330
19:27:28,895; -362
19:27:28,898; -388
19:27:28,902; -385
19:27:28,906; -424
19:27:28,910; -429
19:27:28,914; -439
19:27:28,918; -436
19:27:28,922; -429
19:27:28,926; -435
19:27:28,930; -413
19:27:28,934; -422
19:27:28,938; -429
19:27:28,941; -429
19:27:28,945; -437
19:27:28,949; -439
19:27:28,953; -425
19:27:28,957; -423
19:27:28,961; -415
19:27:28,965; -422
19:27:28,969; -453
19:27:28,973; -468
19:27:28,977; -426
19:27:28,980; -308
19:27:28,984; -119
19:27:28,988; 234
19:27:28,992; 737
19:27:28,996; 1335
19:27:29,000; 1801
19:27:29,004; 2041
19:27:29,008; 2015
19:27:29,012; 1868
19:27:29,016; 1076
19:27:29,020; 380
19:27:29,023; -299
19:27:29,027; -543
19:27:29,031; -692
19:27:29,035; -553
19:27:29,039; -380
19:27:29,043; -279
19:27:29,047; -291
19:27:29,051; -340
19:27:29,055; -473
19:27:29,059; -412
19:27:29,062; -385
19:27:29,066; -383
19:27:29,070; -385
19:27:29,074; -410
19:27:29,078; -434
19:27:29,082; -412
19:27:29,086; -376
19:27:29,090; -416
19:27:29,094; -420
19:27:29,098; -408
19:27:29,102; -382
19:27:29,105; -402
19:27:29,109; -407
19:27:29,113; -395
19:27:29,117; -405
19:27:29,121; -390
19:27:29,125; -378
19:27:29,129; -375
19:27:29,133; -368
19:27:29,137; -367
19:27:29,141; -361
19:27:29,145; -350
19:27:29,148; -359
19:27:29,152; -346
19:27:29,156; -353
19:27:29,160; -341
19:27:29,164; -337
19:27:29,168; -321
19:27:29,172; -318
19:27:29,176; -311
19:27:29,180; -321
19:27:29,184; -299
19:27:29,188; -288
19:27:29,191; -274
19:27:29,195; -245
19:27:29,199; -240
19:27:29,203; -214
19:27:29,207; -187
19:27:29,211; -179
19:27:29,215; -165
19:27:29,219; -124
19:27:29,223; -85
19:27:29,227; -72
19:27:29,230; -44
19:27:29,234; -23
19:27:29,238; -11
19:27:29,242; 17
19:27:29,246; 4
19:27:29,250; 52
19:27:29,254; 67
19:27:29,258; 81
19:27:29,262; 98
19:27:29,266; 69
19:27:29,270; 63
19:27:29,273; 44
19:27:29,277; 19
19:27:29,281; 3
19:27:29,285; -36
19:27:29,289; -60
19:27:29,293; -106
19:27:29,297; -146
19:27:29,301; -173
19:27:29,305; -220
19:27:29,309; -229
19:27:29,312; -260
19:27:29,316; -274
19:27:29,320; -299
19:27:29,324; -320
19:27:29,328; -331
19:27:29,332; -337
19:27:29,336; -333
19:27:29,340; -330
19:27:29,344; -356
19:27:29,348; -365
19:27:29,352; -347
19:27:29,355; -366
19:27:29,359; -375
19:27:29,363; -336
19:27:29,367; -349
19:27:29,371; -354
19:27:29,375; -351
19:27:29,379; -356
19:27:29,383; -347
19:27:29,387; -331
19:27:29,391; -339
19:27:29,395; -340
19:27:29,398; -346
19:27:29,402; -339
19:27:29,406; -348
19:27:29,410; -342
19:27:29,414; -339
19:27:29,418; -349
19:27:29,422; -348
19:27:29,426; -346
19:27:29,430; -347
19:27:29,434; -341
19:27:29,438; -324
19:27:29,441; -343
19:27:29,445; -349
19:27:29,449; -365
19:27:29,453; -376
19:27:29,457; -373
19:27:29,461; -367
19:27:29,465; -380
19:27:29,469; -382
19:27:29,473; -380
19:27:29,477; -376
19:27:29,480; -396
19:27:29,484; -375
19:27:29,488; -349
19:27:29,492; -344
19:27:29,496; -326
19:27:29,500; -338
19:27:29,504; -312
19:27:29,508; -315
19:27:29,512; -314
19:27:29,516; -284
19:27:29,520; -270
19:27:29,523; -245
19:27:29,527; -261
19:27:29,531; -261
19:27:29,535; -287
19:27:29,539; -292
19:27:29,543; -279
19:27:29,547; -300
19:27:29,551; -308
19:27:29,555; -290
19:27:29,559; -344
19:27:29,562; -384
19:27:29,566; -435
19:27:29,570; -447
19:27:29,574; -440
19:27:29,578; -474
19:27:29,582; -470
19:27:29,586; -447
19:27:29,590; -469
19:27:29,594; -445
19:27:29,598; -484
19:27:29,602; -457
19:27:29,605; -444
19:27:29,609; -469
19:27:29,613; -459
19:27:29,617; -479
19:27:29,621; -462
19:27:29,625; -454
19:27:29,629; -462
19:27:29,633; -468
19:27:29,637; -486
19:27:29,641; -504
19:27:29,645; -498
19:27:29,648; -472
19:27:29,652; -421
19:27:29,656; -297
19:27:29,660; -22
19:27:29,664; 566
19:27:29,668; 1492
19:27:29,672; 1711
19:27:29,676; 2158
19:27:29,680; 2212
19:27:29,684; 1680
19:27:29,688; 819
19:27:29,691; 42
19:27:29,695; -369
19:27:29,699; -686
19:27:29,703; -587
19:27:29,707; -626
19:27:29,711; -383
19:27:29,715; -275
19:27:29,719; -400
19:27:29,723; -495
19:27:29,727; -528
19:27:29,730; -465
19:27:29,734; -442
19:27:29,738; -486
19:27:29,742; -441
19:27:29,746; -465
19:27:29,750; -484
19:27:29,754; -468
19:27:29,758; -465
19:27:29,762; -448
19:27:29,766; -449
19:27:29,770; -417
19:27:29,773; -412
19:27:29,777; -460
19:27:29,781; -442
19:27:29,785; -474
19:27:29,789; -464
19:27:29,793; -448
19:27:29,797; -432
19:27:29,801; -416
19:27:29,805; -431
19:27:29,809; -439
19:27:29,812; -438
19:27:29,816; -436
19:27:29,820; -415
19:27:29,824; -400
19:27:29,828; -391
19:27:29,832; -390
19:27:29,836; -382
19:27:29,840; -375
19:27:29,844; -333
19:27:29,848; -344
19:27:29,852; -354
19:27:29,855; -316
19:27:29,859; -338
19:27:29,863; -301
19:27:29,867; -297
19:27:29,871; -271
19:27:29,875; -247
19:27:29,879; -230
19:27:29,883; -223
19:27:29,887; -173
19:27:29,891; -148
19:27:29,895; -101
19:27:29,898; -93
19:27:29,902; -63
19:27:29,906; -73
19:27:29,910; -34
19:27:29,914; -10
19:27:29,918; -19
19:27:29,922; -6
19:27:29,926; 20
19:27:29,930; 31
19:27:29,934; -3
19:27:29,938; 7
19:27:29,941; 24
19:27:29,945; -17
19:27:29,949; -73
19:27:29,953; -85
19:27:29,957; -125
19:27:29,961; -166
19:27:29,965; -203
19:27:29,969; -206
19:27:29,973; -259
19:27:29,977; -272
19:27:29,980; -331
19:27:29,984; -349
19:27:29,988; -350
19:27:29,992; -358
19:27:29,996; -375
19:27:30,000; -360
19:27:30,004; -398
19:27:30,008; -405
19:27:30,012; -412
19:27:30,016; -428
19:27:30,020; -407
19:27:30,023; -409
19:27:30,027; -402
19:27:30,031; -393
19:27:30,035; -375
19:27:30,039; -398
19:27:30,043; -375
19:27:30,047; -420
19:27:30,051; -410
19:27:30,055; -385
19:27:30,059; -385
19:27:30,062; -368
19:27:30,066; -374
19:27:30,070; -373
19:27:30,074; -353
19:27:30,078; -376
19:27:30,082; -373
19:27:30,086; -366
19:27:30,090; -358
19:27:30,094; -367
19:27:30,098; -375
19:27:30,102; -370
19:27:30,105; -388
19:27:30,109; -387
19:27:30,113; -411
19:27:30,117; -379
19:27:30,121; -370
19:27:30,125; -369
19:27:30,129; -350
19:27:30,133; -387
19:27:30,137; -379
19:27:30,141; -377
19:27:30,145; -343
19:27:30,148; -323
19:27:30,152; -309
19:27:30,156; -296
19:27:30,160; -288
19:27:30,164; -300
19:27:30,168; -286
19:27:30,172; -274
19:27:30,176; -262
19:27:30,180; -313
19:27:30,184; -304
19:27:30,187; -312
19:27:30,191; -333
19:27:30,195; -322
19:27:30,199; -331
19:27:30,203; -335
19:27:30,207; -297
19:27:30,211; -356
19:27:30,215; -392
19:27:30,219; -425
19:27:30,223; -478
19:27:30,227; -477
19:27:30,230; -498
19:27:30,234; -475
19:27:30,238; -467
19:27:30,242; -433
19:27:30,246; -457
19:27:30,250; -483
19:27:30,254; -468
19:27:30,258; -476
19:27:30,262; -467
19:27:30,266; -455
19:27:30,270; -468
19:27:30,273; -479
19:27:30,277; -492
19:27:30,281; -485
19:27:30,285; -522
19:27:30,289; -529
19:27:30,293; -462
19:27:30,297; -358
19:27:30,301; -154
19:27:30,305; 255
19:27:30,309; 770
19:27:30,313; 1283
19:27:30,316; 1903
19:27:30,320; 2208
19:27:30,324; 2280
19:27:30,328; 2087
19:27:30,332; 1403
19:27:30,336; 506
19:27:30,340; -206
19:27:30,344; -560
19:27:30,348; -683
19:27:30,352; -599
19:27:30,355; -365
19:27:30,359; -324
19:27:30,363; -273
19:27:30,367; -435
19:27:30,371; -510
19:27:30,375; -422
19:27:30,379; -449
19:27:30,383; -484
19:27:30,387; -468
19:27:30,391; -529
19:27:30,395; -489
19:27:30,398; -452
19:27:30,402; -423
19:27:30,406; -485
19:27:30,410; -452
19:27:30,414; -453
19:27:30,418; -483
19:27:30,422; -456
19:27:30,426; -461
19:27:30,430; -445
19:27:30,434; -422
19:27:30,438; -440
19:27:30,441; -416
19:27:30,445; -448
19:27:30,449; -423
19:27:30,453; -450
19:27:30,457; -437
19:27:30,461; -425
19:27:30,465; -407
19:27:30,469; -399
19:27:30,473; -424
19:27:30,477; -375
19:27:30,480; -366
19:27:30,484; -400
19:27:30,488; -369
19:27:30,492; -363
19:27:30,496; -341
19:27:30,500; -341
19:27:30,504; -332
19:27:30,508; -288
19:27:30,512; -271
19:27:30,516; -267
19:27:30,520; -257
19:27:30,523; -214
19:27:30,527; -177
19:27:30,531; -188
19:27:30,535; -164
19:27:30,539; -115
19:27:30,543; -97
19:27:30,547; -79
19:27:30,551; -52
19:27:30,555; -20
19:27:30,559; 3
19:27:30,562; 26
19:27:30,566; 31
19:27:30,570; 60
19:27:30,574; 50
19:27:30,578; 40
19:27:30,582; 34
19:27:30,586; 6
19:27:30,590; -42
19:27:30,594; -41
19:27:30,598; -72
19:27:30,602; -141
19:27:30,605; -181
19:27:30,609; -189
19:27:30,613; -228
19:27:30,617; -265
19:27:30,621; -283
19:27:30,625; -315
19:27:30,629; -349
19:27:30,633; -333
19:27:30,637; -385
19:27:30,641; -400
19:27:30,645; -357
19:27:30,648; -413
19:27:30,652; -405
19:27:30,656; -413
19:27:30,660; -405
19:27:30,664; -422
19:27:30,668; -432
19:27:30,672; -433
19:27:30,676; -418
19:27:30,680; -418
19:27:30,684; -425
19:27:30,688; -393
19:27:30,691; -425
19:27:30,695; -393
19:27:30,699; -411
19:27:30,703; -395
19:27:30,707; -406
19:27:30,711; -404
19:27:30,715; -386
19:27:30,719; -406
19:27:30,723; -368
19:27:30,727; -382
19:27:30,730; -382
19:27:30,734; -360
19:27:30,738; -375
19:27:30,742; -384
19:27:30,746; -408
19:27:30,750; -386
19:27:30,754; -380
19:27:30,758; -382
19:27:30,762; -361
19:27:30,766; -360
19:27:30,770; -377
19:27:30,773; -394
19:27:30,777; -404
19:27:30,781; -408
19:27:30,785; -400
19:27:30,789; -397
19:27:30,793; -436
19:27:30,797; -416
19:27:30,801; -431
19:27:30,805; -454
19:27:30,809; -405
19:27:30,812; -409
19:27:30,816; -411
19:27:30,820; -391
19:27:30,824; -362
19:27:30,828; -392
19:27:30,832; -355
19:27:30,836; -345
19:27:30,840; -379
19:27:30,844; -333
19:27:30,848; -310
19:27:30,852; -336
19:27:30,855; -299
19:27:30,859; -318
19:27:30,863; -328
19:27:30,867; -334
19:27:30,871; -364
19:27:30,875; -367
19:27:30,879; -390
19:27:30,883; -389
19:27:30,887; -396
19:27:30,891; -427
19:27:30,895; -473
19:27:30,898; -464
19:27:30,902; -482
19:27:30,906; -535
19:27:30,910; -497
19:27:30,914; -492
19:27:30,918; -499
19:27:30,922; -506
19:27:30,926; -545
19:27:30,930; -518
19:27:30,934; -515
19:27:30,938; -526
19:27:30,941; -520
19:27:30,945; -518
19:27:30,949; -525
19:27:30,953; -548
19:27:30,957; -522
19:27:30,961; -511
19:27:30,965; -560
19:27:30,969; -548
19:27:30,973; -509
19:27:30,977; -490
19:27:30,980; -353
19:27:30,984; -44
19:27:30,988; 554
19:27:30,992; 975
19:27:30,996; 1636
19:27:31,000; 2125
19:27:31,004; 2200
19:27:31,008; 2247
19:27:31,012; 1746
19:27:31,016; 1015
19:27:31,020; 305
19:27:31,023; -437
19:27:31,027; -559
19:27:31,031; -699
19:27:31,035; -608
19:27:31,039; -386
19:27:31,043; -348
19:27:31,047; -427
19:27:31,051; -557
19:27:31,055; -558
19:27:31,059; -576
19:27:31,062; -493
19:27:31,066; -519
19:27:31,070; -563
19:27:31,074; -557
19:27:31,078; -547
19:27:31,082; -554
19:27:31,086; -549
19:27:31,090; -532
19:27:31,094; -570
19:27:31,098; -509
19:27:31,102; -546
19:27:31,105; -527
19:27:31,109; -530
19:27:31,113; -558
19:27:31,117; -534
19:27:31,121; -517
19:27:31,125; -531
19:27:31,129; -523
19:27:31,133; -514
19:27:31,137; -519
19:27:31,141; -504
19:27:31,145; -504
19:27:31,148; -496
19:27:31,152; -488
19:27:31,156; -482
19:27:31,160; -519
19:27:31,164; -489
19:27:31,168; -448
19:27:31,172; -440
19:27:31,176; -470
19:27:31,180; -422
19:27:31,184; -408
19:27:31,188; -409
19:27:31,191; -396
19:27:31,195; -369
19:27:31,199; -344
19:27:31,203; -330
19:27:31,207; -304
19:27:31,211; -269
19:27:31,215; -243
19:27:31,219; -235
19:27:31,223; -223
19:27:31,227; -190
19:27:31,230; -160
19:27:31,234; -134
19:27:31,238; -100
19:27:31,242; -49
19:27:31,246; -46
19:27:31,250; -32
19:27:31,254; -37
19:27:31,258; -62
19:27:31,262; -80
19:27:31,266; -66
19:27:31,270; -118
19:27:31,273; -129
19:27:31,277; -150
19:27:31,281; -176
19:27:31,285; -245
19:27:31,289; -281
19:27:31,293; -297
19:27:31,297; -325
19:27:31,301; -389
19:27:31,305; -443
19:27:31,309; -433
19:27:31,312; -475
19:27:31,316; -482
19:27:31,320; -480
19:27:31,324; -505
19:27:31,328; -481
19:27:31,332; -532
19:27:31,336; -527
19:27:31,340; -523
19:27:31,344; -516
19:27:31,348; -533
19:27:31,352; -524
19:27:31,355; -502
19:27:31,359; -526
19:27:31,363; -492
19:27:31,367; -512
19:27:31,371; -538
19:27:31,375; -527
19:27:31,379; -544
19:27:31,383; -553
19:27:31,387; -521
19:27:31,391; -537
19:27:31,395; -536
19:27:31,398; -532
19:27:31,402; -507
19:27:31,406; -511
19:27:31,410; -527
19:27:31,414; -494
19:27:31,418; -497
19:27:31,422; -522
19:27:31,426; -492
19:27:31,430; -482
19:27:31,434; -526
19:27:31,438; -545
19:27:31,441; -509
19:27:31,445; -555
19:27:31,449; -543
19:27:31,453; -498
19:27:31,457; -515
19:27:31,461; -502
19:27:31,465; -524
19:27:31,469; -552
19:27:31,473; -519
19:27:31,477; -558
19:27:31,480; -553
19:27:31,484; -560
19:27:31,488; -568
19:27:31,492; -553
19:27:31,496; -540
19:27:31,500; -563
19:27:31,504; -550
19:27:31,508; -565
19:27:31,512; -587
19:27:31,516; -604
19:27:31,520; -587
19:27:31,523; -608
19:27:31,527; -569
19:27:31,531; -592
19:27:31,535; -591
19:27:31,539; -607
19:27:31,543; -604
19:27:31,547; -602
19:27:31,551; -622
19:27:31,555; -601
19:27:31,559; -602
19:27:31,562; -607
19:27:31,566; -602
19:27:31,570; -635
19:27:31,574; -615
19:27:31,578; -630
19:27:31,582; -617
19:27:31,586; -646
19:27:31,590; -635
19:27:31,594; -623
19:27:31,598; -614
19:27:31,602; -617
19:27:31,605; -586
19:27:31,609; -556
19:27:31,613; -545
19:27:31,617; -588
19:27:31,621; -546
19:27:31,625; -542
19:27:31,629; -565
19:27:31,633; -512
19:27:31,637; -463
19:27:31,641; -472
19:27:31,645; -525
19:27:31,648; -468
19:27:31,652; -537
19:27:31,656; -550
19:27:31,660; -524
19:27:31,664; -531
19:27:31,668; -560
19:27:31,672; -568
19:27:31,676; -569
19:27:31,680; -646
19:27:31,684; -644
19:27:31,688; -655
19:27:31,691; -677
19:27:31,695; -681
19:27:31,699; -682
19:27:31,703; -717
19:27:31,707; -690
19:27:31,711; -690
19:27:31,715; -684
19:27:31,719; -697
19:27:31,723; -674
19:27:31,727; -703
19:27:31,730; -708
19:27:31,734; -710
19:27:31,738; -723
19:27:31,742; -699
19:27:31,746; -687
19:27:31,750; -725
19:27:31,754; -748
19:27:31,758; -698
19:27:31,762; -576
19:27:31,766; -433
19:27:31,770; -122
19:27:31,773; 486
19:27:31,777; 911
19:27:31,781; 1716
19:27:31,785; 1936
19:27:31,789; 2062
19:27:31,793; 2060
19:27:31,797; 1609
19:27:31,801; 717
19:27:31,805; -263
19:27:31,809; -499
19:27:31,812; -765
19:27:31,816; -863
19:27:31,820; -798
19:27:31,824; -434
19:27:31,828; -514
19:27:31,832; -724
19:27:31,836; -752
19:27:31,840; -813
19:27:31,844; -664
19:27:31,848; -691
19:27:31,852; -667
19:27:31,855; -759
19:27:31,859; -714
19:27:31,863; -731
19:27:31,867; -740
19:27:31,871; -719
19:27:31,875; -726
19:27:31,879; -756
19:27:31,883; -748
19:27:31,887; -713
19:27:31,891; -752
19:27:31,895; -748
19:27:31,898; -706
19:27:31,902; -738
19:27:31,906; -701
19:27:31,910; -696
19:27:31,914; -703
19:27:31,918; -715
19:27:31,922; -725
19:27:31,926; -708
19:27:31,930; -688
19:27:31,934; -721
19:27:31,938; -712
19:27:31,941; -665
19:27:31,945; -678
19:27:31,949; -657
19:27:31,953; -644
19:27:31,957; -633
19:27:31,961; -630
19:27:31,965; -632
19:27:31,969; -634
19:27:31,973; -603
19:27:31,977; -570
19:27:31,980; -593
19:27:31,984; -540
19:27:31,988; -521
19:27:31,992; -488
19:27:31,996; -480
19:27:32,000; -427
19:27:32,004; -390
19:27:32,008; -379
19:27:32,012; -352
19:27:32,016; -322
19:27:32,020; -302
19:27:32,023; -243
19:27:32,027; -278
19:27:32,031; -248
19:27:32,035; -215
19:27:32,039; -199
19:27:32,043; -212
19:27:32,047; -210
19:27:32,051; -197
19:27:32,055; -266
19:27:32,059; -276
19:27:32,063; -307
19:27:32,066; -351
19:27:32,070; -383
19:27:32,074; -404
19:27:32,078; -426
19:27:32,082; -460
19:27:32,086; -494
19:27:32,090; -535
19:27:32,094; -581
19:27:32,098; -579
19:27:32,102; -589
19:27:32,105; -620
19:27:32,109; -613
19:27:32,113; -629
19:27:32,117; -621
19:27:32,121; -659
19:27:32,125; -656
19:27:32,129; -626
19:27:32,133; -645
19:27:32,137; -651
19:27:32,141; -655
19:27:32,145; -654
19:27:32,148; -648
19:27:32,152; -641
19:27:32,156; -632
19:27:32,160; -634
19:27:32,164; -631
19:27:32,168; -634
19:27:32,172; -632
19:27:32,176; -638
19:27:32,180; -641
19:27:32,184; -609
19:27:32,188; -616
19:27:32,191; -625
19:27:32,195; -601
19:27:32,199; -591
19:27:32,203; -597
19:27:32,207; -575
19:27:32,211; -556
19:27:32,215; -565
19:27:32,219; -607
19:27:32,223; -568
19:27:32,227; -592
19:27:32,230; -579
19:27:32,234; -576
19:27:32,238; -576
19:27:32,242; -581
19:27:32,246; -597
19:27:32,250; -587
19:27:32,254; -569
19:27:32,258; -566
19:27:32,262; -567
19:27:32,266; -583
19:27:32,270; -578
19:27:32,273; -576
19:27:32,277; -600
19:27:32,281; -564
19:27:32,285; -579
19:27:32,289; -614
19:27:32,293; -592
19:27:32,297; -601
19:27:32,301; -608
19:27:32,305; -596
19:27:32,309; -605
19:27:32,312; -615
19:27:32,316; -603
19:27:32,320; -596
19:27:32,324; -609
19:27:32,328; -602
19:27:32,332; -608
19:27:32,336; -600
19:27:32,340; -605
19:27:32,344; -611
19:27:32,348; -599
19:27:32,352; -599
19:27:32,355; -592
19:27:32,359; -595
19:27:32,363; -585
19:27:32,367; -589
19:27:32,371; -603
19:27:32,375; -606
19:27:32,379; -613
19:27:32,383; -618
19:27:32,387; -611
19:27:32,391; -590
19:27:32,395; -586
19:27:32,398; -604
19:27:32,402; -586
19:27:32,406; -576
19:27:32,410; -570
19:27:32,414; -587
19:27:32,418; -588
19:27:32,422; -569
19:27:32,426; -579
19:27:32,430; -583
19:27:32,434; -599
19:27:32,438; -583
19:27:32,441; -584
19:27:32,445; -596
19:27:32,449; -584
19:27:32,453; -574
19:27:32,457; -579
19:27:32,461; -564
19:27:32,465; -570
19:27:32,469; -559
19:27:32,473; -552
19:27:32,477; -561
19:27:32,480; -545
19:27:32,484; -561
19:27:32,488; -555
19:27:32,492; -564
19:27:32,496; -551
19:27:32,500; -554
19:27:32,504; -539
19:27:32,508; -552
19:27:32,512; -565
19:27:32,516; -552
19:27:32,520; -544
19:27:32,523; -549
19:27:32,527; -540
19:27:32,531; -539
19:27:32,535; -533
19:27:32,539; -548
19:27:32,543; -544
19:27:32,547; -539
19:27:32,551; -527
19:27:32,555; -511
19:27:32,559; -535
19:27:32,562; -526
19:27:32,566; -518
19:27:32,570; -518
19:27:32,574; -509
19:27:32,578; -527
19:27:32,582; -541
19:27:32,586; -542
19:27:32,590; -518
19:27:32,594; -515
19:27:32,598; -522
19:27:32,602; -492
19:27:32,605; -504
19:27:32,609; -511
19:27:32,613; -507
19:27:32,617; -497
19:27:32,621; -481
19:27:32,625; -499
19:27:32,629; -491
19:27:32,633; -506
19:27:32,637; -514
19:27:32,641; -483
19:27:32,645; -470
19:27:32,648; -487
19:27:32,652; -466
19:27:32,656; -460
19:27:32,660; -464
19:27:32,664; -443
19:27:32,668; -409
19:27:32,672; -414
19:27:32,676; -375
19:27:32,680; -375
19:27:32,684; -359
19:27:32,688; -353
19:27:32,691; -356
19:27:32,695; -336
19:27:32,699; -342
19:27:32,703; -356
19:27:32,707; -361
19:27:32,711; -351
19:27:32,715; -359
19:27:32,719; -380
19:27:32,723; -366
19:27:32,727; -385
19:27:32,730; -408
19:27:32,734; -425
19:27:32,738; -440
19:27:32,742; -441
19:27:32,746; -447
19:27:32,750; -464
19:27:32,754; -449
19:27:32,758; -462
19:27:32,762; -444
19:27:32,766; -466
19:27:32,770; -448
19:27:32,773; -429
19:27:32,777; -442
19:27:32,781; -445
19:27:32,785; -437
19:27:32,789; -431
19:27:32,793; -443
19:27:32,797; -463
19:27:32,801; -463
19:27:32,805; -447
19:27:32,809; -425
19:27:32,812; -373
19:27:32,816; -248
19:27:32,820; 29
19:27:32,824; 616
19:27:32,828; 1540
19:27:32,832; 1998
19:27:32,836; 2201
19:27:32,840; 2350
19:27:32,844; 1811
19:27:32,848; 886
19:27:32,852; -120
19:27:32,855; -335
19:27:32,859; -502
19:27:32,863; -550
19:27:32,867; -515
19:27:32,871; -225
19:27:32,875; -305
19:27:32,879; -338
19:27:32,883; -486
19:27:32,887; -493
19:27:32,891; -375
19:27:32,895; -348
19:27:32,898; -432
19:27:32,902; -384
19:27:32,906; -405
19:27:32,910; -418
19:27:32,914; -396
19:27:32,918; -401
19:27:32,922; -429
19:27:32,926; -422
19:27:32,930; -428
19:27:32,934; -391
19:27:32,938; -406
19:27:32,941; -411
19:27:32,945; -391
19:27:32,949; -370
19:27:32,953; -404
19:27:32,957; -387
19:27:32,961; -395
19:27:32,965; -400
19:27:32,969; -382
19:27:32,973; -365
19:27:32,977; -389
19:27:32,980; -335
19:27:32,984; -359
19:27:32,988; -347
19:27:32,992; -346
19:27:32,996; -339
19:27:33,000; -331
19:27:33,004; -308
19:27:33,008; -284
19:27:33,012; -290
19:27:33,016; -268
19:27:33,020; -271
19:27:33,023; -270
19:27:33,027; -232
19:27:33,031; -223
19:27:33,035; -186
19:27:33,039; -179
19:27:33,043; -142
19:27:33,047; -127
19:27:33,051; -115
19:27:33,055; -84
19:27:33,059; -72
19:27:33,062; -34
19:27:33,066; -9
19:27:33,070; 7
19:27:33,074; 21
19:27:33,078; 48
19:27:33,082; 78
19:27:33,086; 78
19:27:33,090; 108
19:27:33,094; 123
19:27:33,098; 107
19:27:33,102; 130
19:27:33,105; 106
19:27:33,109; 95
19:27:33,113; 78
19:27:33,117; 48
19:27:33,121; 23
19:27:33,125; -14
19:27:33,129; -50
19:27:33,133; -65
19:27:33,137; -99
19:27:33,141; -142
19:27:33,145; -178
19:27:33,148; -208
19:27:33,152; -232
19:27:33,156; -248
19:27:33,160; -255
19:27:33,164; -245
19:27:33,168; -279
19:27:33,172; -285
19:27:33,176; -291
19:27:33,180; -309
19:27:33,184; -303
19:27:33,188; -300
19:27:33,191; -302
19:27:33,195; -293
19:27:33,199; -301
19:27:33,203; -299
19:27:33,207; -278
19:27:33,211; -278
19:27:33,215; -264
19:27:33,219; -272
19:27:33,223; -280
19:27:33,227; -282
19:27:33,230; -268
19:27:33,234; -266
19:27:33,238; -255
19:27:33,242; -264
19:27:33,246; -257
19:27:33,250; -268
19:27:33,254; -268
19:27:33,258; -254
19:27:33,262; -235
19:27:33,266; -256
19:27:33,270; -262
19:27:33,273; -244
19:27:33,277; -248
19:27:33,281; -254
19:27:33,285; -250
19:27:33,289; -235
19:27:33,293; -262
19:27:33,297; -272
19:27:33,301; -293
19:27:33,305; -270
19:27:33,309; -273
19:27:33,312; -276
19:27:33,316; -287
19:27:33,320; -279
19:27:33,324; -293
19:27:33,328; -281
19:27:33,332; -290
19:27:33,336; -298
19:27:33,340; -295
19:27:33,344; -299
19:27:33,348; -314
19:27:33,352; -326
19:27:33,355; -308
19:27:33,359; -311
19:27:33,363; -317
19:27:33,367; -301
19:27:33,371; -319
19:27:33,375; -312
19:27:33,379; -326
19:27:33,383; -312
19:27:33,387; -322
19:27:33,391; -334
19:27:33,395; -327
19:27:33,398; -324
19:27:33,402; -308
19:27:33,406; -326
19:27:33,410; -314
19:27:33,414; -304
19:27:33,418; -313
19:27:33,422; -334
19:27:33,426; -323
19:27:33,430; -323
19:27:33,434; -339
19:27:33,438; -325
19:27:33,441; -316
19:27:33,445; -323
19:27:33,449; -327
19:27:33,453; -312
19:27:33,457; -324
19:27:33,461; -333
19:27:33,465; -323
19:27:33,469; -296
19:27:33,473; -314
19:27:33,477; -316
19:27:33,480; -320
19:27:33,484; -321
19:27:33,488; -326
19:27:33,492; -326
19:27:33,496; -309
19:27:33,500; -319
19:27:33,504; -321
19:27:33,508; -324
19:27:33,512; -320
19:27:33,516; -305
19:27:33,520; -317
19:27:33,523; -315
19:27:33,527; -309
19:27:33,531; -314
19:27:33,535; -311
19:27:33,539; -312
19:27:33,543; -293
19:27:33,547; -311
19:27:33,551; -310
19:27:33,555; -311
19:27:33,559; -321
19:27:33,563; -307
19:27:33,566; -299
19:27:33,570; -302
19:27:33,574; -308
19:27:33,578; -307
19:27:33,582; -296
19:27:33,586; -307
19:27:33,590; -312
19:27:33,594; -299
19:27:33,598; -294
19:27:33,602; -309
19:27:33,605; -299
19:27:33,609; -300
19:27:33,613; -305
19:27:33,617; -305
19:27:33,621; -303
19:27:33,625; -310
19:27:33,629; -300
19:27:33,633; -297
19:27:33,637; -297
19:27:33,641; -284
19:27:33,645; -289
19:27:33,648; -290
19:27:33,652; -302
19:27:33,656; -288
19:27:33,660; -301
19:27:33,664; -311
19:27:33,668; -294
19:27:33,672; -301
19:27:33,676; -291
19:27:33,680; -297
19:27:33,684; -273
19:27:33,688; -267
19:27:33,691; -266
19:27:33,695; -251
19:27:33,699; -246
19:27:33,703; -222
19:27:33,707; -189
19:27:33,711; -209
19:27:33,715; -178
19:27:33,719; -141
19:27:33,723; -152
19:27:33,727; -161
19:27:33,730; -160
19:27:33,734; -150
19:27:33,738; -187
19:27:33,742; -164
19:27:33,746; -191
19:27:33,750; -181
19:27:33,754; -206
19:27:33,758; -194
19:27:33,762; -230
19:27:33,766; -264
19:27:33,770; -272
19:27:33,773; -286
19:27:33,777; -309
19:27:33,781; -294
19:27:33,785; -311
19:27:33,789; -285
19:27:33,793; -286
19:27:33,797; -288
19:27:33,801; -299
19:27:33,805; -306
19:27:33,809; -291
19:27:33,812; -298
19:27:33,816; -293
19:27:33,820; -299
19:27:33,824; -285
19:27:33,828; -293
19:27:33,832; -323
19:27:33,836; -298
19:27:33,840; -227
19:27:33,844; -39
19:27:33,848; 266
19:27:33,852; 798
19:27:33,855; 1319
19:27:33,859; 1869
19:27:33,863; 2187
19:27:33,867; 2172
19:27:33,871; 2089
19:27:33,875; 1535
19:27:33,879; 901
19:27:33,883; 5
19:27:33,887; -193
19:27:33,891; -366
19:27:33,895; -420
19:27:33,898; -218
19:27:33,902; -110
19:27:33,906; -117
19:27:33,910; -159
19:27:33,914; -341
19:27:33,918; -266
19:27:33,922; -243
19:27:33,926; -238
19:27:33,930; -231
19:27:33,934; -331
19:27:33,938; -299
19:27:33,941; -243
19:27:33,945; -247
19:27:33,949; -263
19:27:33,953; -258
19:27:33,957; -263
19:27:33,961; -244
19:27:33,965; -270
19:27:33,969; -233
19:27:33,973; -240
19:27:33,977; -250
19:27:33,980; -235
19:27:33,984; -246
19:27:33,988; -239
19:27:33,992; -228
19:27:33,996; -244
19:27:34,000; -220
19:27:34,004; -221
19:27:34,008; -199
19:27:34,012; -203
19:27:34,016; -204
19:27:34,020; -210
19:27:34,023; -185
19:27:34,027; -189
19:27:34,031; -167
19:27:34,035; -163
19:27:34,039; -150
19:27:34,043; -137
19:27:34,047; -133
19:27:34,051; -123
19:27:34,055; -106
19:27:34,059; -85
19:27:34,062; -72
19:27:34,066; -51
19:27:34,070; -55
19:27:34,074; -23
19:27:34,078; -9
19:27:34,082; 24
19:27:34,086; 39
19:27:34,090; 76
19:27:34,094; 118
19:27:34,098; 125
19:27:34,102; 132
19:27:34,105; 139
19:27:34,109; 169
19:27:34,113; 170
19:27:34,117; 199
19:27:34,121; 217
19:27:34,125; 238
19:27:34,129; 242
19:27:34,133; 233
19:27:34,137; 243
19:27:34,141; 213
19:27:34,145; 184
19:27:34,148; 172
19:27:34,152; 154
19:27:34,156; 110
19:27:34,160; 80
19:27:34,164; 66
19:27:34,168; 34
19:27:34,172; -29
19:27:34,176; -61
19:27:34,180; -84
19:27:34,184; -115
19:27:34,188; -123
19:27:34,191; -143
19:27:34,195; -164
19:27:34,199; -164
19:27:34,203; -172
19:27:34,207; -191
19:27:34,211; -198
19:27:34,215; -188
19:27:34,219; -197
19:27:34,223; -189
19:27:34,227; -188
19:27:34,230; -193
19:27:34,234; -174
19:27:34,238; -184
19:27:34,242; -181
19:27:34,246; -176
19:27:34,250; -181
19:27:34,254; -177
19:27:34,258; -173
19:27:34,262; -165
19:27:34,266; -176
19:27:34,270; -167
19:27:34,273; -163
19:27:34,277; -160
19:27:34,281; -188
19:27:34,285; -185
19:27:34,289; -171
19:27:34,293; -181
19:27:34,297; -190
19:27:34,301; -187
19:27:34,305; -189
19:27:34,309; -191
19:27:34,312; -199
19:27:34,316; -197
19:27:34,320; -201
19:27:34,324; -197
19:27:34,328; -195
19:27:34,332; -211
19:27:34,336; -203
19:27:34,340; -217
19:27:34,344; -207
19:27:34,348; -221
19:27:34,352; -223
19:27:34,355; -211
19:27:34,359; -219
19:27:34,363; -220
19:27:34,367; -222
19:27:34,371; -230
19:27:34,375; -221
19:27:34,379; -232
19:27:34,383; -233
19:27:34,387; -237
19:27:34,391; -249
19:27:34,395; -242
19:27:34,398; -250
19:27:34,402; -235
19:27:34,406; -233
19:27:34,410; -228
19:27:34,414; -239
19:27:34,418; -234
19:27:34,422; -247
19:27:34,426; -240
19:27:34,430; -237
19:27:34,434; -249
19:27:34,438; -253
19:27:34,441; -243
19:27:34,445; -258
19:27:34,449; -249
19:27:34,453; -249
19:27:34,457; -245
19:27:34,461; -237
19:27:34,465; -257
19:27:34,469; -259
19:27:34,473; -250
19:27:34,477; -251
19:27:34,480; -253
19:27:34,484; -243
19:27:34,488; -231
19:27:34,492; -262
19:27:34,496; -245
19:27:34,500; -243
19:27:34,504; -257
19:27:34,508; -237
19:27:34,512; -249
19:27:34,516; -239
19:27:34,520; -245
19:27:34,523; -248
19:27:34,527; -237
19:27:34,531; -238
19:27:34,535; -224
19:27:34,539; -248
19:27:34,543; -237
19:27:34,547; -244
19:27:34,551; -247
19:27:34,555; -248
19:27:34,559; -241
19:27:34,562; -234
19:27:34,566; -228
19:27:34,570; -242
19:27:34,574; -231
19:27:34,578; -217
19:27:34,582; -198
19:27:34,586; -167
19:27:34,590; -152
19:27:34,594; -158
19:27:34,598; -127
19:27:34,602; -122
19:27:34,605; -110
19:27:34,609; -98
19:27:34,613; -73
19:27:34,617; -80
19:27:34,621; -100
19:27:34,625; -129
19:27:34,629; -128
19:27:34,633; -148
19:27:34,637; -140
19:27:34,641; -145
19:27:34,645; -161
19:27:34,648; -153
19:27:34,652; -202
19:27:34,656; -219
19:27:34,660; -241
19:27:34,664; -258
19:27:34,668; -255
19:27:34,672; -264
19:27:34,676; -245
19:27:34,680; -253
19:27:34,684; -258
19:27:34,688; -256
19:27:34,691; -254
19:27:34,695; -257
19:27:34,699; -240
19:27:34,703; -253
19:27:34,707; -240
19:27:34,711; -253
19:27:34,715; -265
19:27:34,719; -294
19:27:34,723; -277
19:27:34,727; -242
19:27:34,730; -179
19:27:34,734; -28
19:27:34,738; 304
19:27:34,742; 922
19:27:34,746; 1377
19:27:34,750; 1923
19:27:34,754; 2292
19:27:34,758; 2194
19:27:34,762; 1949
19:27:34,766; 1323
19:27:34,770; 565
19:27:34,773; -7
19:27:34,777; -280
19:27:34,781; -380
19:27:34,785; -324
19:27:34,789; -138
19:27:34,793; -100
19:27:34,797; -152
19:27:34,801; -181
19:27:34,805; -286
19:27:34,809; -290
19:27:34,812; -206
19:27:34,816; -186
19:27:34,820; -245
19:27:34,824; -266
19:27:34,828; -227
19:27:34,832; -212
19:27:34,836; -201
19:27:34,840; -213
19:27:34,844; -213
19:27:34,848; -196
19:27:34,852; -253
19:27:34,855; -218
19:27:34,859; -215
19:27:34,863; -217
19:27:34,867; -212
19:27:34,871; -203
19:27:34,875; -194
19:27:34,879; -194
19:27:34,883; -189
19:27:34,887; -191
19:27:34,891; -186
19:27:34,895; -178
19:27:34,898; -193
19:27:34,902; -160
19:27:34,906; -140
19:27:34,910; -166
19:27:34,914; -145
19:27:34,918; -133
19:27:34,922; -128
19:27:34,926; -124
19:27:34,930; -117
19:27:34,934; -103
19:27:34,938; -86
19:27:34,941; -77
19:27:34,945; -81
19:27:34,949; -34
19:27:34,953; -20
19:27:34,957; -17
19:27:34,961; 27
19:27:34,965; 45
19:27:34,969; 74
19:27:34,973; 79
19:27:34,977; 116
19:27:34,980; 126
19:27:34,984; 144
19:27:34,988; 183
19:27:34,992; 204
19:27:34,996; 226
19:27:35,000; 231
19:27:35,004; 260
19:27:35,008; 280
19:27:35,012; 296
19:27:35,016; 302
19:27:35,020; 310
19:27:35,023; 287
19:27:35,027; 270
19:27:35,031; 248
19:27:35,035; 231
19:27:35,039; 191
19:27:35,043; 158
19:27:35,047; 131
19:27:35,051; 110
19:27:35,055; 48
19:27:35,059; 35
19:27:35,063; 1
19:27:35,066; -34
19:27:35,070; -75
19:27:35,074; -84
19:27:35,078; -105
19:27:35,082; -109
19:27:35,086; -128
19:27:35,090; -145
19:27:35,094; -141
19:27:35,098; -158
19:27:35,102; -155
19:27:35,105; -160
19:27:35,109; -158
19:27:35,113; -163
19:27:35,117; -165
19:27:35,121; -148
19:27:35,125; -168
19:27:35,129; -143
19:27:35,133; -135
19:27:35,137; -143
19:27:35,141; -133
19:27:35,145; -147
19:27:35,148; -123
19:27:35,152; -129
19:27:35,156; -123
19:27:35,160; -128
19:27:35,164; -115
19:27:35,168; -122
19:27:35,172; -142
19:27:35,176; -129
19:27:35,180; -129
19:27:35,184; -141
19:27:35,188; -134
19:27:35,191; -139
19:27:35,195; -144
19:27:35,199; -139
19:27:35,203; -144
19:27:35,207; -147
19:27:35,211; -155
19:27:35,215; -160
19:27:35,219; -168
19:27:35,223; -153
19:27:35,227; -163
19:27:35,230; -151
19:27:35,234; -166
19:27:35,238; -157
19:27:35,242; -163
19:27:35,246; -180
19:27:35,250; -177
19:27:35,254; -165
19:27:35,258; -175
19:27:35,262; -166
19:27:35,266; -175
19:27:35,270; -177
19:27:35,273; -171
19:27:35,277; -188
19:27:35,281; -185
19:27:35,285; -186
19:27:35,289; -201
19:27:35,293; -197
19:27:35,297; -191
19:27:35,301; -184
19:27:35,305; -186
19:27:35,309; -183
19:27:35,312; -196
19:27:35,316; -188
19:27:35,320; -194
19:27:35,324; -203
19:27:35,328; -193
19:27:35,332; -196
19:27:35,336; -193
19:27:35,340; -198
19:27:35,344; -197
19:27:35,348; -198
19:27:35,352; -203
19:27:35,355; -207
19:27:35,359; -204
19:27:35,363; -187
19:27:35,367; -194
19:27:35,371; -209
19:27:35,375; -193
19:27:35,379; -212
19:27:35,383; -211
19:27:35,387; -202
19:27:35,391; -197
19:27:35,395; -191
19:27:35,398; -210
19:27:35,402; -206
19:27:35,406; -209
19:27:35,410; -205
19:27:35,414; -204
19:27:35,418; -199
19:27:35,422; -187
19:27:35,426; -199
19:27:35,430; -199
19:27:35,434; -194
19:27:35,438; -196
19:27:35,441; -189
19:27:35,445; -207
19:27:35,449; -198
19:27:35,453; -189
19:27:35,457; -205
19:27:35,461; -191
19:27:35,465; -211
19:27:35,469; -193
19:27:35,473; -178
19:27:35,477; -178
19:27:35,480; -174
19:27:35,484; -141
19:27:35,488; -109
19:27:35,492; -111
19:27:35,496; -104
19:27:35,500; -75
19:27:35,504; -75
19:27:35,508; -57
19:27:35,512; -43
19:27:35,516; -40
19:27:35,520; -36
19:27:35,523; -46
19:27:35,527; -82
19:27:35,531; -95
19:27:35,535; -98
19:27:35,539; -85
19:27:35,543; -97
19:27:35,547; -101
19:27:35,551; -117
19:27:35,555; -140
19:27:35,559; -191
19:27:35,562; -197
19:27:35,566; -211
19:27:35,570; -217
19:27:35,574; -207
19:27:35,578; -218
19:27:35,582; -194
19:27:35,586; -211
19:27:35,590; -202
19:27:35,594; -218
19:27:35,598; -218
19:27:35,602; -204
19:27:35,605; -208
19:27:35,609; -218
19:27:35,613; -201
19:27:35,617; -215
19:27:35,621; -249
19:27:35,625; -240
19:27:35,629; -212
19:27:35,633; -170
19:27:35,637; -50
19:27:35,641; 229
19:27:35,645; 821
19:27:35,648; 1421
19:27:35,652; 1928
19:27:35,656; 2209
19:27:35,660; 2301
19:27:35,664; 2001
19:27:35,668; 1344
19:27:35,672; 752
19:27:35,676; 35
19:27:35,680; -171
19:27:35,684; -299
19:27:35,688; -301
19:27:35,691; -251
19:27:35,695; -59
19:27:35,699; -32
19:27:35,703; -166
19:27:35,707; -218
19:27:35,711; -216
19:27:35,715; -163
19:27:35,719; -165
19:27:35,723; -215
19:27:35,727; -218
19:27:35,730; -174
19:27:35,734; -168
19:27:35,738; -204
19:27:35,742; -175
19:27:35,746; -183
19:27:35,750; -193
19:27:35,754; -185
19:27:35,758; -187
19:27:35,762; -176
19:27:35,766; -175
19:27:35,770; -172
19:27:35,773; -167
19:27:35,777; -158
19:27:35,781; -157
19:27:35,785; -150
19:27:35,789; -130
19:27:35,793; -149
19:27:35,797; -143
19:27:35,801; -130
19:27:35,805; -147
19:27:35,809; -127
19:27:35,812; -123
19:27:35,816; -101
19:27:35,820; -97
19:27:35,824; -98
19:27:35,828; -83
19:27:35,832; -82
19:27:35,836; -75
19:27:35,840; -54
19:27:35,844; -35
19:27:35,848; -27
19:27:35,852; -1
19:27:35,855; 19
19:27:35,859; 12
19:27:35,863; 35
19:27:35,867; 53
19:27:35,871; 85
19:27:35,875; 111
19:27:35,879; 132
19:27:35,883; 151
19:27:35,887; 179
19:27:35,891; 203
19:27:35,895; 235
19:27:35,898; 239
19:27:35,902; 273
19:27:35,906; 290
19:27:35,910; 284
19:27:35,914; 313
19:27:35,918; 328
19:27:35,922; 332
19:27:35,926; 332
19:27:35,930; 335
19:27:35,934; 284
19:27:35,938; 261
19:27:35,941; 243
19:27:35,945; 192
19:27:35,949; 163
19:27:35,953; 146
19:27:35,957; 98
19:27:35,961; 79
19:27:35,965; 22
19:27:35,969; 3
19:27:35,973; -22
19:27:35,977; -36
19:27:35,980; -71
19:27:35,984; -81
19:27:35,988; -102
19:27:35,992; -122
19:27:35,996; -122
19:27:36,000; -130
19:27:36,004; -130
19:27:36,008; -132
19:27:36,012; -125
19:27:36,016; -139
19:27:36,020; -129
19:27:36,023; -126
19:27:36,027; -121
19:27:36,031; -127
19:27:36,035; -126
19:27:36,039; -121
19:27:36,043; -104
19:27:36,047; -114
19:27:36,051; -117
19:27:36,055; -106
19:27:36,059; -116
19:27:36,062; -109
19:27:36,066; -123
19:27:36,070; -108
19:27:36,074; -97
19:27:36,078; -118
19:27:36,082; -105
19:27:36,086; -121
19:27:36,090; -118
19:27:36,094; -116
19:27:36,098; -137
19:27:36,102; -119
19:27:36,105; -131
19:27:36,109; -126
19:27:36,113; -136
19:27:36,117; -142
19:27:36,121; -144
19:27:36,125; -152
19:27:36,129; -147
19:27:36,133; -155
19:27:36,137; -151
19:27:36,141; -163
19:27:36,145; -158
19:27:36,148; -153
19:27:36,152; -168
19:27:36,156; -158
19:27:36,160; -169
19:27:36,164; -154
19:27:36,168; -151
19:27:36,172; -184
19:27:36,176; -157
19:27:36,180; -166
19:27:36,184; -186
19:27:36,188; -174
19:27:36,191; -179
19:27:36,195; -152
19:27:36,199; -180
19:27:36,203; -177
19:27:36,207; -178
19:27:36,211; -191
19:27:36,215; -196
19:27:36,219; -214
19:27:36,223; -166
19:27:36,227; -195
19:27:36,230; -197
19:27:36,234; -177
19:27:36,238; -192
19:27:36,242; -191
19:27:36,246; -196
19:27:36,250; -186
19:27:36,254; -188
19:27:36,258; -198
19:27:36,262; -183
19:27:36,266; -199
19:27:36,270; -178
19:27:36,273; -194
19:27:36,277; -200
19:27:36,281; -183
19:27:36,285; -185
19:27:36,289; -161
19:27:36,293; -141
19:27:36,297; -117
19:27:36,301; -100
19:27:36,305; -89
19:27:36,309; -77
19:27:36,312; -80
19:27:36,316; -49
19:27:36,320; -48
19:27:36,324; -37
19:27:36,328; -27
19:27:36,332; -43
19:27:36,336; -51
19:27:36,340; -70
19:27:36,344; -87
19:27:36,348; -82
19:27:36,352; -102
19:27:36,355; -107
19:27:36,359; -119
19:27:36,363; -144
19:27:36,367; -176
19:27:36,371; -185
19:27:36,375; -210
19:27:36,379; -223
19:27:36,383; -205
19:27:36,387; -222
19:27:36,391; -213
19:27:36,395; -208
19:27:36,398; -205
19:27:36,402; -208
19:27:36,406; -213
19:27:36,410; -206
19:27:36,414; -212
19:27:36,418; -221
19:27:36,422; -206
19:27:36,426; -220
19:27:36,430; -221
19:27:36,434; -250
19:27:36,438; -248
19:27:36,441; -221
19:27:36,445; -142
19:27:36,449; 33
19:27:36,453; 399
19:27:36,457; 971
19:27:36,461; 1402
19:27:36,465; 2049
19:27:36,469; 2243
19:27:36,473; 2196
19:27:36,477; 1965
19:27:36,480; 1273
19:27:36,484; 617
19:27:36,488; -30
19:27:36,492; -254
19:27:36,496; -372
19:27:36,500; -345
19:27:36,504; -180
19:27:36,508; -130
19:27:36,512; -86
19:27:36,516; -206
19:27:36,520; -199
19:27:36,523; -210
19:27:36,527; -194
19:27:36,531; -164
19:27:36,535; -227
19:27:36,539; -219
19:27:36,543; -230
19:27:36,547; -190
19:27:36,551; -208
19:27:36,555; -200
19:27:36,559; -198
19:27:36,562; -183
19:27:36,566; -183
19:27:36,570; -182
19:27:36,574; -159
19:27:36,578; -184
19:27:36,582; -171
19:27:36,586; -169
19:27:36,590; -157
19:27:36,594; -158
19:27:36,598; -168
19:27:36,602; -151
19:27:36,605; -161
19:27:36,609; -152
19:27:36,613; -145
19:27:36,617; -122
19:27:36,621; -126
19:27:36,625; -130
19:27:36,629; -112
19:27:36,633; -109
19:27:36,637; -90
19:27:36,641; -91
19:27:36,645; -89
19:27:36,648; -64
19:27:36,652; -60
19:27:36,656; -47
19:27:36,660; -24
19:27:36,664; -14
19:27:36,668; 21
19:27:36,672; 26
19:27:36,676; 56
19:27:36,680; 65
19:27:36,684; 99
19:27:36,688; 128
19:27:36,691; 134
19:27:36,695; 177
19:27:36,699; 196
19:27:36,703; 229
19:27:36,707; 257
19:27:36,711; 262
19:27:36,715; 289
19:27:36,719; 304
19:27:36,723; 329
19:27:36,727; 357
19:27:36,730; 376
19:27:36,734; 373
19:27:36,738; 358
19:27:36,742; 337
19:27:36,746; 299
19:27:36,750; 269
19:27:36,754; 236
19:27:36,758; 217
19:27:36,762; 190
19:27:36,766; 145
19:27:36,770; 83
19:27:36,773; 64
19:27:36,777; 45
19:27:36,781; -1
19:27:36,785; -14
19:27:36,789; -56
19:27:36,793; -61
19:27:36,797; -85
19:27:36,801; -99
19:27:36,805; -116
19:27:36,809; -103
19:27:36,813; -122
19:27:36,816; -115
19:27:36,820; -132
19:27:36,824; -128
19:27:36,828; -123
19:27:36,832; -125
19:27:36,836; -117
19:27:36,840; -125
19:27:36,844; -127
19:27:36,848; -121
19:27:36,852; -114
19:27:36,855; -113
19:27:36,859; -105
19:27:36,863; -104
19:27:36,867; -104
19:27:36,871; -110
19:27:36,875; -106
19:27:36,879; -118
19:27:36,883; -103
19:27:36,887; -114
19:27:36,891; -105
19:27:36,895; -97
19:27:36,898; -119
19:27:36,902; -90
19:27:36,906; -112
19:27:36,910; -124
19:27:36,914; -112
19:27:36,918; -135
19:27:36,922; -121
19:27:36,926; -132
19:27:36,930; -121
19:27:36,934; -129
19:27:36,938; -134
19:27:36,941; -130
19:27:36,945; -127
19:27:36,949; -124
19:27:36,953; -134
19:27:36,957; -139
19:27:36,961; -121
19:27:36,965; -103
19:27:36,969; -85
19:27:36,973; -81
19:27:36,977; -64
19:27:36,980; -56
19:27:36,984; -50
19:27:36,988; -24
19:27:36,992; -21
19:27:36,996; 8
19:27:37,000; -6
19:27:37,004; -21
19:27:37,008; -31
19:27:37,012; -49
19:27:37,016; -55
19:27:37,020; -72
19:27:37,023; -81
19:27:37,027; -93
19:27:37,031; -131
19:27:37,035; -146
19:27:37,039; -162
19:27:37,043; -201
19:27:37,047; -226
19:27:37,051; -215
19:27:37,055; -225
19:27:37,059; -221
19:27:37,062; -211
19:27:37,066; -229
19:27:37,070; -212
19:27:37,074; -222
19:27:37,078; -245
19:27:37,082; -234
19:27:37,086; -232
19:27:37,090; -243
19:27:37,094; -237
19:27:37,098; -230
19:27:37,102; -230
19:27:37,105; -242
19:27:37,109; -257
19:27:37,113; -245
19:27:37,117; -216
19:27:37,121; -103
19:27:37,125; 159
19:27:37,129; 630
19:27:37,133; 1089
19:27:37,137; 1701
19:27:37,141; 2036
19:27:37,145; 2252
19:27:37,148; 2149
19:27:37,152; 1772
19:27:37,156; 1103
19:27:37,160; 291
19:27:37,164; -126
19:27:37,168; -456
19:27:37,172; -523
19:27:37,176; -417
19:27:37,180; -216
19:27:37,184; -83
19:27:37,188; -169
19:27:37,191; -255
19:27:37,195; -222
19:27:37,199; -272
19:27:37,203; -209
19:27:37,207; -243
19:27:37,211; -211
19:27:37,215; -255
19:27:37,219; -223
19:27:37,223; -247
19:27:37,227; -218
19:27:37,230; -243
19:27:37,234; -189
19:27:37,238; -214
19:27:37,242; -213
19:27:37,246; -216
19:27:37,250; -236
19:27:37,254; -217
19:27:37,258; -218
19:27:37,262; -196
19:27:37,266; -204
19:27:37,270; -189
19:27:37,273; -172
19:27:37,277; -194
19:27:37,281; -184
19:27:37,285; -182
19:27:37,289; -178
19:27:37,293; -183
19:27:37,297; -173
19:27:37,301; -161
19:27:37,305; -148
19:27:37,309; -156
19:27:37,312; -145
19:27:37,316; -134
19:27:37,320; -124
19:27:37,324; -103
19:27:37,328; -93
19:27:37,332; -98
19:27:37,336; -73
19:27:37,340; -57
19:27:37,344; -50
19:27:37,348; -16
19:27:37,352; -3
19:27:37,355; 19
19:27:37,359; 42
19:27:37,363; 64
19:27:37,367; 93
19:27:37,371; 115
19:27:37,375; 129
19:27:37,379; 142
19:27:37,383; 184
19:27:37,387; 198
19:27:37,391; 197
19:27:37,395; 231
19:27:37,398; 236
19:27:37,402; 244
19:27:37,406; 228
19:27:37,410; 248
19:27:37,414; 221
19:27:37,418; 193
19:27:37,422; 145
19:27:37,426; 94
19:27:37,430; 39
19:27:37,434; 14
19:27:37,438; -19
19:27:37,441; -51
19:27:37,445; -71
19:27:37,449; -88
19:27:37,453; -126
19:27:37,457; -164
19:27:37,461; -172
19:27:37,465; -185
19:27:37,469; -188
19:27:37,473; -199
19:27:37,477; -214
19:27:37,480; -233
19:27:37,484; -225
19:27:37,488; -225
19:27:37,492; -241
19:27:37,496; -216
19:27:37,500; -224
19:27:37,504; -213
19:27:37,508; -227
19:27:37,512; -216
19:27:37,516; -201
19:27:37,520; -210
19:27:37,523; -189
19:27:37,527; -190
19:27:37,531; -218
19:27:37,535; -205
19:27:37,539; -217
19:27:37,543; -225
19:27:37,547; -197
19:27:37,551; -196
19:27:37,555; -185
19:27:37,559; -176
19:27:37,562; -199
19:27:37,566; -211
19:27:37,570; -213
19:27:37,574; -203
19:27:37,578; -199
19:27:37,582; -199
19:27:37,586; -189
19:27:37,590; -206
19:27:37,594; -187
19:27:37,598; -193
19:27:37,602; -205
19:27:37,605; -187
19:27:37,609; -165
19:27:37,613; -147
19:27:37,617; -158
19:27:37,621; -110
19:27:37,625; -127
19:27:37,629; -117
19:27:37,633; -101
19:27:37,637; -72
19:27:37,641; -61
19:27:37,645; -81
19:27:37,648; -81
19:27:37,652; -107
19:27:37,656; -111
19:27:37,660; -142
19:27:37,664; -154
19:27:37,668; -143
19:27:37,672; -168
19:27:37,676; -187
19:27:37,680; -216
19:27:37,684; -242
19:27:37,688; -266
19:27:37,691; -292
19:27:37,695; -282
19:27:37,699; -295
19:27:37,703; -298
19:27:37,707; -296
19:27:37,711; -320
19:27:37,715; -299
19:27:37,719; -294
19:27:37,723; -302
19:27:37,727; -274
19:27:37,730; -285
19:27:37,734; -316
19:27:37,738; -324
19:27:37,742; -312
19:27:37,746; -288
19:27:37,750; -314
19:27:37,754; -342
19:27:37,758; -333
19:27:37,762; -301
19:27:37,766; -202
19:27:37,770; 31
19:27:37,773; 521
19:27:37,777; 1151
19:27:37,781; 1817
19:27:37,785; 2074
19:27:37,789; 2375
19:27:37,793; 2342
19:27:37,797; 1849
19:27:37,801; 1039
19:27:37,805; 271
19:27:37,809; -174
19:27:37,812; -574
19:27:37,816; -499
19:27:37,820; -379
19:27:37,824; -233
19:27:37,828; -172
19:27:37,832; -203
19:27:37,836; -307
19:27:37,840; -370
19:27:37,844; -297
19:27:37,848; -196
19:27:37,852; -289
19:27:37,855; -313
19:27:37,859; -351
19:27:37,863; -280
19:27:37,867; -285
19:27:37,871; -272
19:27:37,875; -279
19:27:37,879; -336
19:27:37,883; -324
19:27:37,887; -308
19:27:37,891; -320
19:27:37,895; -319
19:27:37,898; -295
19:27:37,902; -287
19:27:37,906; -272
19:27:37,910; -309
19:27:37,914; -292
19:27:37,918; -304
19:27:37,922; -290
19:27:37,926; -290
19:27:37,930; -264
19:27:37,934; -259
19:27:37,938; -252
19:27:37,941; -252
19:27:37,945; -262
19:27:37,949; -258
19:27:37,953; -253
19:27:37,957; -218
19:27:37,961; -191
19:27:37,965; -186
19:27:37,969; -206
19:27:37,973; -193
19:27:37,977; -176
19:27:37,980; -167
19:27:37,984; -136
19:27:37,988; -107
19:27:37,992; -88
19:27:37,996; -79
19:27:38,000; -38
19:27:38,004; -19
19:27:38,008; 12
19:27:38,012; 65
19:27:38,016; 80
19:27:38,020; 63
19:27:38,023; 121
19:27:38,027; 147
19:27:38,031; 115
19:27:38,035; 126
19:27:38,039; 139
19:27:38,043; 147
19:27:38,047; 147
19:27:38,051; 130
19:27:38,055; 150
19:27:38,059; 103
19:27:38,062; 68
19:27:38,066; 32
19:27:38,070; -12
19:27:38,074; -26
19:27:38,078; -58
19:27:38,082; -113
19:27:38,086; -152
19:27:38,090; -187
19:27:38,094; -203
19:27:38,098; -239
19:27:38,102; -247
19:27:38,105; -280
19:27:38,109; -282
19:27:38,113; -287
19:27:38,117; -301
19:27:38,121; -288
19:27:38,125; -299
19:27:38,129; -301
19:27:38,133; -320
19:27:38,137; -323
19:27:38,141; -329
19:27:38,145; -331
19:27:38,148; -306
19:27:38,152; -324
19:27:38,156; -304
19:27:38,160; -287
19:27:38,164; -325
19:27:38,168; -309
19:27:38,172; -315
19:27:38,176; -300
19:27:38,180; -293
19:27:38,184; -256
19:27:38,187; -289
19:27:38,191; -303
19:27:38,195; -295
19:27:38,199; -296
19:27:38,203; -328
19:27:38,207; -262
19:27:38,211; -285
19:27:38,215; -286
19:27:38,219; -292
19:27:38,223; -273
19:27:38,227; -299
19:27:38,230; -276
19:27:38,234; -245
19:27:38,238; -249
19:27:38,242; -244
19:27:38,246; -221
19:27:38,250; -200
19:27:38,254; -188
19:27:38,258; -190
19:27:38,262; -187
19:27:38,266; -201
19:27:38,270; -165
19:27:38,273; -196
19:27:38,277; -214
19:27:38,281; -223
19:27:38,285; -248
19:27:38,289; -269
19:27:38,293; -270
19:27:38,297; -289
19:27:38,301; -292
19:27:38,305; -322
19:27:38,309; -369
19:27:38,313; -422
19:27:38,316; -420
19:27:38,320; -419
19:27:38,324; -425
19:27:38,328; -419
19:27:38,332; -417
19:27:38,336; -440
19:27:38,340; -462
19:27:38,344; -435
19:27:38,348; -418
19:27:38,352; -447
19:27:38,355; -425
19:27:38,359; -458
19:27:38,363; -447
19:27:38,367; -474
19:27:38,371; -463
19:27:38,375; -453
19:27:38,379; -472
19:27:38,383; -474
19:27:38,387; -495
19:27:38,391; -437
19:27:38,395; -335
19:27:38,398; -76
19:27:38,402; 517
19:27:38,406; 1293
19:27:38,410; 1910
19:27:38,414; 2240
19:27:38,418; 2376
19:27:38,422; 2160
19:27:38,426; 1414
19:27:38,430; 593
19:27:38,434; -182
19:27:38,438; -439
19:27:38,441; -629
19:27:38,445; -638
19:27:38,449; -422
19:27:38,453; -328
19:27:38,457; -363
19:27:38,461; -416
19:27:38,465; -559
19:27:38,469; -564
19:27:38,473; -454
19:27:38,477; -423
19:27:38,480; -493
19:27:38,484; -526
19:27:38,488; -484
19:27:38,492; -510
19:27:38,496; -531
19:27:38,500; -515
19:27:38,504; -545
19:27:38,508; -492
19:27:38,512; -538
19:27:38,516; -506
19:27:38,520; -500
19:27:38,523; -501
19:27:38,527; -511
19:27:38,531; -507
19:27:38,535; -477
19:27:38,539; -482
19:27:38,543; -477
19:27:38,547; -474
19:27:38,551; -493
19:27:38,555; -508
19:27:38,559; -470
19:27:38,562; -470
19:27:38,566; -499
19:27:38,570; -472
19:27:38,574; -442
19:27:38,578; -477
19:27:38,582; -465
19:27:38,586; -421
19:27:38,590; -435
19:27:38,594; -399
19:27:38,598; -402
19:27:38,602; -375
19:27:38,605; -389
19:27:38,609; -349
19:27:38,613; -328
19:27:38,617; -323
19:27:38,621; -301
19:27:38,625; -250
19:27:38,629; -248
19:27:38,633; -222
19:27:38,637; -155
19:27:38,641; -156
19:27:38,645; -128
19:27:38,648; -117
19:27:38,652; -121
19:27:38,656; -87
19:27:38,660; -61
19:27:38,664; -90
19:27:38,668; -68
19:27:38,672; -62
19:27:38,676; -112
19:27:38,680; -159
19:27:38,684; -165
19:27:38,688; -218
19:27:38,691; -227
19:27:38,695; -255
19:27:38,699; -311
19:27:38,703; -352
19:27:38,707; -382
19:27:38,711; -431
19:27:38,715; -446
19:27:38,719; -463
19:27:38,723; -485
19:27:38,727; -517
19:27:38,730; -514
19:27:38,734; -538
19:27:38,738; -565
19:27:38,742; -582
19:27:38,746; -579
19:27:38,750; -564
19:27:38,754; -585
19:27:38,758; -578
19:27:38,762; -580
19:27:38,766; -603
19:27:38,770; -597
19:27:38,773; -602
19:27:38,777; -620
19:27:38,781; -595
19:27:38,785; -573
19:27:38,789; -601
19:27:38,793; -589
19:27:38,797; -565
19:27:38,801; -559
19:27:38,805; -592
19:27:38,809; -570
19:27:38,812; -572
19:27:38,816; -577
19:27:38,820; -566
19:27:38,824; -566
19:27:38,828; -566
19:27:38,832; -591
19:27:38,836; -558
19:27:38,840; -563
19:27:38,844; -573
19:27:38,848; -515
19:27:38,852; -547
19:27:38,855; -566
19:27:38,859; -564
19:27:38,863; -555
19:27:38,867; -561
19:27:38,871; -555
19:27:38,875; -552
19:27:38,879; -537
19:27:38,883; -532
19:27:38,887; -499
19:27:38,891; -493
19:27:38,895; -463
19:27:38,898; -440
19:27:38,902; -446
19:27:38,906; -460
19:27:38,910; -443
19:27:38,914; -450
19:27:38,918; -439
19:27:38,922; -424
19:27:38,926; -440
19:27:38,930; -414
19:27:38,934; -461
19:27:38,938; -467
19:27:38,941; -496
19:27:38,945; -498
19:27:38,949; -512
19:27:38,953; -521
19:27:38,957; -537
19:27:38,961; -570
19:27:38,965; -595
19:27:38,969; -612
19:27:38,973; -624
19:27:38,977; -611
19:27:38,980; -599
19:27:38,984; -615
19:27:38,988; -588
19:27:38,992; -607
19:27:38,996; -609
19:27:39,000; -612
19:27:39,004; -614
19:27:39,008; -599
19:27:39,012; -616
19:27:39,016; -603
19:27:39,020; -592
19:27:39,023; -596
19:27:39,027; -616
19:27:39,031; -620
19:27:39,035; -575
19:27:39,039; -495
19:27:39,043; -284
19:27:39,047; 175
19:27:39,051; 756
19:27:39,055; 1208
19:27:39,059; 1857
19:27:39,062; 2160
19:27:39,066; 2201
19:27:39,070; 2097
19:27:39,074; 1462
19:27:39,078; 694
19:27:39,082; -115
19:27:39,086; -604
19:27:39,090; -617
19:27:39,094; -667
19:27:39,098; -559
19:27:39,102; -286
19:27:39,105; -369
19:27:39,109; -543
19:27:39,113; -562
19:27:39,117; -583
19:27:39,121; -471
19:27:39,125; -496
19:27:39,129; -553
19:27:39,133; -553
19:27:39,137; -541
19:27:39,141; -547
19:27:39,145; -537
19:27:39,148; -518
19:27:39,152; -531
19:27:39,156; -558
19:27:39,160; -522
19:27:39,164; -524
19:27:39,168; -512
19:27:39,172; -537
19:27:39,176; -509
19:27:39,180; -499
19:27:39,184; -513
19:27:39,188; -509
19:27:39,191; -497
19:27:39,195; -483
19:27:39,199; -478
19:27:39,203; -462
19:27:39,207; -452
19:27:39,211; -455
19:27:39,215; -451
19:27:39,219; -446
19:27:39,223; -424
19:27:39,227; -419
19:27:39,230; -419
19:27:39,234; -397
19:27:39,238; -387
19:27:39,242; -360
19:27:39,246; -347
19:27:39,250; -326
19:27:39,254; -307
19:27:39,258; -294
19:27:39,262; -273
19:27:39,266; -259
19:27:39,270; -224
19:27:39,273; -184
19:27:39,277; -173
19:27:39,281; -140
19:27:39,285; -127
19:27:39,289; -103
19:27:39,293; -92
19:27:39,297; -46
19:27:39,301; -19
19:27:39,305; -1
19:27:39,309; 25
19:27:39,312; 22
19:27:39,316; 32
19:27:39,320; 13
19:27:39,324; 11
19:27:39,328; 10
19:27:39,332; -19
19:27:39,336; -44
19:27:39,340; -82
19:27:39,344; -121
19:27:39,348; -150
19:27:39,352; -183
19:27:39,355; -217
19:27:39,359; -245
19:27:39,363; -267
19:27:39,367; -299
19:27:39,371; -323
19:27:39,375; -328
19:27:39,379; -341
19:27:39,383; -362
19:27:39,387; -351
19:27:39,391; -365
19:27:39,395; -356
19:27:39,398; -360
19:27:39,402; -365
19:27:39,406; -378
19:27:39,410; -371
19:27:39,414; -377
19:27:39,418; -377
19:27:39,422; -370
19:27:39,426; -369
19:27:39,430; -334
19:27:39,434; -352
19:27:39,438; -357
19:27:39,441; -319
19:27:39,445; -348
19:27:39,449; -330
19:27:39,453; -342
19:27:39,457; -344
19:27:39,461; -319
19:27:39,465; -328
19:27:39,469; -323
19:27:39,473; -300
19:27:39,477; -309
19:27:39,480; -299
19:27:39,484; -296
19:27:39,488; -276
19:27:39,492; -310
19:27:39,496; -289
19:27:39,500; -297
19:27:39,504; -304
19:27:39,508; -294
19:27:39,512; -297
19:27:39,516; -286
19:27:39,520; -276
19:27:39,523; -292
19:27:39,527; -282
19:27:39,531; -309
19:27:39,535; -295
19:27:39,539; -304
19:27:39,543; -316
19:27:39,547; -313
19:27:39,551; -318
19:27:39,555; -318
19:27:39,559; -326
19:27:39,562; -322
19:27:39,566; -326
19:27:39,570; -332
19:27:39,574; -322
19:27:39,578; -345
19:27:39,582; -326
19:27:39,586; -323
19:27:39,590; -332
19:27:39,594; -328
19:27:39,598; -317
19:27:39,602; -326
19:27:39,605; -335
19:27:39,609; -316
19:27:39,613; -340
19:27:39,617; -346
19:27:39,621; -314
19:27:39,625; -323
19:27:39,629; -328
19:27:39,633; -322
19:27:39,637; -314
19:27:39,641; -328
19:27:39,645; -336
19:27:39,648; -333
19:27:39,652; -330
19:27:39,656; -318
19:27:39,660; -305
19:27:39,664; -317
19:27:39,668; -332
19:27:39,672; -328
19:27:39,676; -335
19:27:39,680; -347
19:27:39,684; -326
19:27:39,688; -308
19:27:39,691; -308
19:27:39,695; -324
19:27:39,699; -321
19:27:39,703; -323
19:27:39,707; -318
19:27:39,711; -310
19:27:39,715; -301
19:27:39,719; -303
19:27:39,723; -304
19:27:39,727; -320
19:27:39,730; -312
19:27:39,734; -309
19:27:39,738; -318
19:27:39,742; -312
19:27:39,746; -311
19:27:39,750; -296
19:27:39,754; -304
19:27:39,758; -300
19:27:39,762; -295
19:27:39,766; -304
19:27:39,770; -292
19:27:39,773; -288
19:27:39,777; -290
19:27:39,781; -296
19:27:39,785; -298
19:27:39,789; -282
19:27:39,793; -303
19:27:39,797; -301
19:27:39,801; -276
19:27:39,805; -292
19:27:39,809; -288
19:27:39,813; -289
19:27:39,816; -287
19:27:39,820; -270
19:27:39,824; -283
19:27:39,828; -285
19:27:39,832; -270
19:27:39,836; -288
19:27:39,840; -286
19:27:39,844; -267
19:27:39,848; -269
19:27:39,852; -278
19:27:39,855; -275
19:27:39,859; -276
19:27:39,863; -279
19:27:39,867; -279
19:27:39,871; -266
19:27:39,875; -270
19:27:39,879; -281
19:27:39,883; -274
19:27:39,887; -278
19:27:39,891; -264
19:27:39,895; -271
19:27:39,898; -268
19:27:39,902; -270
19:27:39,906; -266
19:27:39,910; -273
19:27:39,914; -270
19:27:39,918; -268
19:27:39,922; -246
19:27:39,926; -259
19:27:39,930; -255
19:27:39,934; -230
19:27:39,938; -194
19:27:39,941; -186
19:27:39,945; -191
19:27:39,949; -158
19:27:39,953; -152
19:27:39,957; -149
19:27:39,961; -131
19:27:39,965; -120
19:27:39,969; -110
19:27:39,973; -129
19:27:39,977; -161
19:27:39,980; -165
19:27:39,984; -157
19:27:39,988; -159
19:27:39,992; -183
19:27:39,996; -161
19:27:40,000; -176
19:27:40,004; -199
19:27:40,008; -228
19:27:40,012; -262
19:27:40,016; -252
19:27:40,020; -272
19:27:40,023; -273
19:27:40,027; -257
19:27:40,031; -271
19:27:40,035; -252
19:27:40,039; -268
19:27:40,043; -282
19:27:40,047; -274
19:27:40,051; -268
19:27:40,055; -254
19:27:40,059; -268
19:27:40,063; -273
19:27:40,066; -273
19:27:40,070; -300
19:27:40,074; -284
19:27:40,078; -244
19:27:40,082; -134
19:27:40,086; 76
19:27:40,090; 387
19:27:40,094; 991
19:27:40,098; 1434
19:27:40,102; 1956
19:27:40,105; 2318
19:27:40,109; 2233
19:27:40,113; 2110
19:27:40,117; 1368
19:27:40,121; 685
19:27:40,125; -20
19:27:40,129; -286
19:27:40,133; -431
19:27:40,137; -398
19:27:40,141; -204
19:27:40,145; -144
19:27:40,148; -193
19:27:40,152; -236
19:27:40,156; -341
19:27:40,160; -269
19:27:40,164; -254
19:27:40,168; -265
19:27:40,172; -267
19:27:40,176; -284
19:27:40,180; -303
19:27:40,184; -284
19:27:40,188; -252
19:27:40,191; -294
19:27:40,195; -295
19:27:40,199; -281
19:27:40,203; -279
19:27:40,207; -276
19:27:40,211; -271
19:27:40,215; -260
19:27:40,219; -291
19:27:40,223; -263
19:27:40,227; -279
19:27:40,230; -277
19:27:40,234; -274
19:27:40,238; -274
19:27:40,242; -248
19:27:40,246; -251
19:27:40,250; -259
19:27:40,254; -248
19:27:40,258; -245
19:27:40,262; -240
19:27:40,266; -233
19:27:40,270; -199
19:27:40,273; -212
19:27:40,277; -211
19:27:40,281; -198
19:27:40,285; -187
19:27:40,289; -164
19:27:40,293; -168
19:27:40,297; -144
19:27:40,301; -117
19:27:40,305; -113
19:27:40,309; -102
19:27:40,312; -71
19:27:40,316; -72
19:27:40,320; -47
19:27:40,324; -12
19:27:40,328; -12
19:27:40,332; 26
19:27:40,336; 64
19:27:40,340; 76
19:27:40,344; 100
19:27:40,348; 108
19:27:40,352; 139
19:27:40,355; 162
19:27:40,359; 171
19:27:40,363; 189
19:27:40,367; 193
19:27:40,371; 216
19:27:40,375; 244
19:27:40,379; 232
19:27:40,383; 237
19:27:40,387; 228
19:27:40,391; 187
19:27:40,395; 163
19:27:40,398; 142
19:27:40,402; 114
19:27:40,406; 82
19:27:40,410; 64
19:27:40,414; 13
19:27:40,418; 1
19:27:40,422; -27
19:27:40,426; -77
19:27:40,430; -77
19:27:40,434; -76
19:27:40,438; -139
19:27:40,441; -132
19:27:40,445; -126
19:27:40,449; -136
19:27:40,453; -152
19:27:40,457; -153
19:27:40,461; -138
19:27:40,465; -160
19:27:40,469; -162
19:27:40,473; -165
19:27:40,477; -135
19:27:40,480; -136
19:27:40,484; -145
19:27:40,488; -129
19:27:40,492; -153
19:27:40,496; -143
19:27:40,500; -144
19:27:40,504; -161
19:27:40,508; -133
19:27:40,512; -137
19:27:40,516; -138
19:27:40,520; -147
19:27:40,523; -146
19:27:40,527; -136
19:27:40,531; -160
19:27:40,535; -161
19:27:40,539; -160
19:27:40,543; -163
19:27:40,547; -174
19:27:40,551; -167
19:27:40,555; -161
19:27:40,559; -176
19:27:40,562; -177
19:27:40,566; -175
19:27:40,570; -188
19:27:40,574; -199
19:27:40,578; -204
19:27:40,582; -199
19:27:40,586; -209
19:27:40,590; -210
19:27:40,594; -193
19:27:40,598; -225
19:27:40,602; -225
19:27:40,605; -236
19:27:40,609; -235
19:27:40,613; -251
19:27:40,617; -247
19:27:40,621; -252
19:27:40,625; -240
19:27:40,629; -238
19:27:40,633; -258
19:27:40,637; -240
19:27:40,641; -257
19:27:40,645; -261
19:27:40,648; -251
19:27:40,652; -273
19:27:40,656; -270
19:27:40,660; -270
19:27:40,664; -275
19:27:40,668; -281
19:27:40,672; -288
19:27:40,676; -277
19:27:40,680; -286
19:27:40,684; -290
19:27:40,688; -284
19:27:40,691; -279
19:27:40,695; -282
19:27:40,699; -287
19:27:40,703; -283
19:27:40,707; -296
19:27:40,711; -304
19:27:40,715; -287
19:27:40,719; -313
19:27:40,723; -292
19:27:40,727; -313
19:27:40,730; -301
19:27:40,734; -298
19:27:40,738; -307
19:27:40,742; -294
19:27:40,746; -297
19:27:40,750; -303
19:27:40,754; -299
19:27:40,758; -310
19:27:40,762; -283
19:27:40,766; -308
19:27:40,770; -310
19:27:40,773; -306
19:27:40,777; -306
19:27:40,781; -324
19:27:40,785; -309
19:27:40,789; -311
19:27:40,793; -307
19:27:40,797; -318
19:27:40,801; -310
19:27:40,805; -316
19:27:40,809; -302
19:27:40,812; -324
19:27:40,816; -314
19:27:40,820; -307
19:27:40,824; -323
19:27:40,828; -319
19:27:40,832; -320
19:27:40,836; -312
19:27:40,840; -327
19:27:40,844; -316
19:27:40,848; -296
19:27:40,852; -273
19:27:40,855; -247
19:27:40,859; -256
19:27:40,863; -221
19:27:40,867; -215
19:27:40,871; -227
19:27:40,875; -197
19:27:40,879; -185
19:27:40,883; -169
19:27:40,887; -175
19:27:40,891; -211
19:27:40,895; -215
19:27:40,898; -231
19:27:40,902; -240
19:27:40,906; -253
19:27:40,910; -259
19:27:40,914; -259
19:27:40,918; -287
19:27:40,922; -296
19:27:40,926; -321
19:27:40,930; -339
19:27:40,934; -355
19:27:40,938; -354
19:27:40,941; -358
19:27:40,945; -381
19:27:40,949; -356
19:27:40,953; -355
19:27:40,957; -380
19:27:40,961; -373
19:27:40,965; -385
19:27:40,969; -366
19:27:40,973; -364
19:27:40,977; -363
19:27:40,980; -360
19:27:40,984; -377
19:27:40,988; -411
19:27:40,992; -406
19:27:40,996; -368
19:27:41,000; -242
19:27:41,004; 32
19:27:41,008; 379
19:27:41,012; 898
19:27:41,016; 1391
19:27:41,020; 1890
19:27:41,023; 2064
19:27:41,027; 2056
19:27:41,031; 1706
19:27:41,035; 1177
19:27:41,039; 368
19:27:41,043; -369
19:27:41,047; -423
19:27:41,051; -585
19:27:41,055; -541
19:27:41,059; -322
19:27:41,062; -258
19:27:41,066; -317
19:27:41,070; -366
19:27:41,074; -478
19:27:41,078; -397
19:27:41,082; -312
19:27:41,086; -397
19:27:41,090; -372
19:27:41,094; -391
19:27:41,098; -430
19:27:41,102; -376
19:27:41,105; -379
19:27:41,109; -363
19:27:41,113; -400
19:27:41,117; -387
19:27:41,121; -396
19:27:41,125; -397
19:27:41,129; -387
19:27:41,133; -389
19:27:41,137; -366
19:27:41,141; -368
19:27:41,145; -374
19:27:41,148; -362
19:27:41,152; -385
19:27:41,156; -367
19:27:41,160; -372
19:27:41,164; -360
19:27:41,168; -356
19:27:41,172; -359
19:27:41,176; -353
19:27:41,180; -346
19:27:41,184; -326
19:27:41,188; -324
19:27:41,191; -334
19:27:41,195; -316
19:27:41,199; -319
19:27:41,203; -283
19:27:41,207; -285
19:27:41,211; -282
19:27:41,215; -244
19:27:41,219; -258
19:27:41,223; -241
19:27:41,227; -223
19:27:41,230; -194
19:27:41,234; -167
19:27:41,238; -160
19:27:41,242; -124
19:27:41,246; -125
19:27:41,250; -98
19:27:41,254; -79
19:27:41,258; -62
19:27:41,262; -34
19:27:41,266; -17
19:27:41,270; -3
19:27:41,273; 21
19:27:41,277; 28
19:27:41,281; 40
19:27:41,285; 45
19:27:41,289; 52
19:27:41,293; 34
19:27:41,297; 36
19:27:41,301; 8
19:27:41,305; -21
19:27:41,309; -51
19:27:41,312; -85
19:27:41,316; -118
19:27:41,320; -155
19:27:41,324; -180
19:27:41,328; -206
19:27:41,332; -249
19:27:41,336; -268
19:27:41,340; -303
19:27:41,344; -319
19:27:41,348; -338
19:27:41,352; -357
19:27:41,355; -360
19:27:41,359; -379
19:27:41,363; -385
19:27:41,367; -387
19:27:41,371; -391
19:27:41,375; -385
19:27:41,379; -403
19:27:41,383; -399
19:27:41,387; -405
19:27:41,391; -412
19:27:41,395; -400
19:27:41,398; -399
19:27:41,402; -399
19:27:41,406; -387
19:27:41,410; -375
19:27:41,414; -385
19:27:41,418; -393
19:27:41,422; -376
19:27:41,426; -382
19:27:41,430; -391
19:27:41,434; -385
19:27:41,438; -376
19:27:41,441; -375
19:27:41,445; -394
19:27:41,449; -397
19:27:41,453; -388
19:27:41,457; -382
19:27:41,461; -397
19:27:41,465; -401
19:27:41,469; -388
19:27:41,473; -403
19:27:41,477; -405
19:27:41,480; -415
19:27:41,484; -414
19:27:41,488; -401
19:27:41,492; -438
19:27:41,496; -443
19:27:41,500; -437
19:27:41,504; -436
19:27:41,508; -444
19:27:41,512; -448
19:27:41,516; -440
19:27:41,520; -456
19:27:41,523; -448
19:27:41,527; -442
19:27:41,531; -466
19:27:41,535; -464
19:27:41,539; -465
19:27:41,543; -467
19:27:41,547; -483
19:27:41,551; -469
19:27:41,555; -463
19:27:41,559; -477
19:27:41,563; -475
19:27:41,566; -486
19:27:41,570; -495
19:27:41,574; -477
19:27:41,578; -503
19:27:41,582; -480
19:27:41,586; -491
19:27:41,590; -475
19:27:41,594; -459
19:27:41,598; -445
19:27:41,602; -416
19:27:41,605; -420
19:27:41,609; -407
19:27:41,613; -390
19:27:41,617; -399
19:27:41,621; -373
19:27:41,625; -355
19:27:41,629; -344
19:27:41,633; -352
19:27:41,637; -368
19:27:41,641; -384
19:27:41,645; -409
19:27:41,648; -416
19:27:41,652; -419
