Signal Type: ECG_Type;
Start Time: 26/04/2023 19:08:36;
Sample Rate: 256;
Length: 79934;
Unit: �V;
;
Data:;
19:35:20,000;0
19:35:20,004;0
19:35:20,008;0
19:35:20,012;0
19:35:20,016;0
19:35:20,020;0
19:35:20,023;0
19:35:20,027;0
19:35:20,031;0
19:35:20,035;0
19:35:20,039;0
19:35:20,043;0
19:35:20,047;0
19:35:20,051;0
19:35:20,055;0
19:35:20,059;0
19:35:20,062;0
19:35:20,066;0
19:35:20,070;0
19:35:20,074;0
19:35:20,078;0
19:35:20,082;0
19:35:20,086;0
19:35:20,090;0
19:35:20,094;0
19:35:20,098;0
19:35:20,102;0
19:35:20,105;0
19:35:20,109;0
19:35:20,113;0
19:35:20,117;0
19:35:20,121;0
19:35:20,125;0
19:35:20,129;0
19:35:20,133;0
19:35:20,137;0
19:35:20,141;0
19:35:20,145;0
19:35:20,148;0
19:35:20,152;0
19:35:20,156;0
19:35:20,160;0
19:35:20,164;0
19:35:20,168;0
19:35:20,172;0
19:35:20,176;0
19:35:20,180;0
19:35:20,184;0
19:35:20,187;0
19:35:20,191;0
19:35:20,195;0
19:35:20,199;0
19:35:20,203;0
19:35:20,207;0
19:35:20,211;0
19:35:20,215;0
19:35:20,219;0
19:35:20,223;0
19:35:20,227;0
19:35:20,230;0
19:35:20,234;0
19:35:20,238;0
19:35:20,242;0
19:35:20,246;0
19:35:20,250;-1624
19:35:20,254;-152
19:35:20,258;857
19:35:20,262;1282
19:35:20,266;1104
19:35:20,270;-259
19:35:20,273;598
19:35:20,277;465
19:35:20,281;1096
19:35:20,285;915
19:35:20,289;143
19:35:20,293;546
19:35:20,297;704
19:35:20,301;793
19:35:20,305;685
19:35:20,309;727
19:35:20,312;684
19:35:20,316;530
19:35:20,320;1023
19:35:20,324;463
19:35:20,328;970
19:35:20,332;374
19:35:20,336;1299
19:35:20,340;1159
19:35:20,344;1526
19:35:20,348;2323
19:35:20,352;2400
19:35:20,355;2664
19:35:20,359;3223
19:35:20,363;2494
19:35:20,367;2147
19:35:20,371;1501
19:35:20,375;910
19:35:20,379;642
19:35:20,383;732
19:35:20,387;195
19:35:20,391;797
19:35:20,395;537
19:35:20,398;326
19:35:20,402;746
19:35:20,406;475
19:35:20,410;261
19:35:20,414;830
19:35:20,418;-384
19:35:20,422;549
19:35:20,426;288
19:35:20,430;558
19:35:20,434;454
19:35:20,437;182
19:35:20,441;772
19:35:20,445;5
19:35:20,449;-194
19:35:20,453;768
19:35:20,457;472
19:35:20,461;566
19:35:20,465;755
19:35:20,469;536
19:35:20,473;1006
19:35:20,477;281
19:35:20,480;216
19:35:20,484;496
19:35:20,488;540
19:35:20,492;712
19:35:20,496;676
19:35:20,500;672
19:35:20,504;747
19:35:20,508;388
19:35:20,512;166
19:35:20,516;599
19:35:20,520;518
19:35:20,523;724
19:35:20,527;512
19:35:20,531;667
19:35:20,535;597
19:35:20,539;372
19:35:20,543;725
19:35:20,547;375
19:35:20,551;824
19:35:20,555;1006
19:35:20,559;731
19:35:20,562;1359
19:35:20,566;457
19:35:20,570;977
19:35:20,574;878
19:35:20,578;842
19:35:20,582;1292
19:35:20,586;860
19:35:20,590;1177
19:35:20,594;1217
19:35:20,598;708
19:35:20,602;1201
19:35:20,605;907
19:35:20,609;1080
19:35:20,613;1367
19:35:20,617;1057
19:35:20,621;1393
19:35:20,625;1659
19:35:20,629;903
19:35:20,633;1375
19:35:20,637;828
19:35:20,641;994
19:35:20,645;1256
19:35:20,648;596
19:35:20,652;1487
19:35:20,656;1044
19:35:20,660;997
19:35:20,664;1073
19:35:20,668;960
19:35:20,672;1245
19:35:20,676;790
19:35:20,680;886
19:35:20,684;1202
19:35:20,687;936
19:35:20,691;991
19:35:20,695;900
19:35:20,699;728
19:35:20,703;1125
19:35:20,707;764
19:35:20,711;559
19:35:20,715;1366
19:35:20,719;862
19:35:20,723;1056
19:35:20,727;798
19:35:20,730;162
19:35:20,734;1080
19:35:20,738;297
19:35:20,742;730
19:35:20,746;895
19:35:20,750;895
19:35:20,754;790
19:35:20,758;796
19:35:20,762;308
19:35:20,766;743
19:35:20,770;767
19:35:20,773;531
19:35:20,777;763
19:35:20,781;639
19:35:20,785;712
19:35:20,789;920
19:35:20,793;554
19:35:20,797;909
19:35:20,801;1090
19:35:20,805;837
19:35:20,809;773
19:35:20,812;736
19:35:20,816;632
19:35:20,820;753
19:35:20,824;22
19:35:20,828;947
19:35:20,832;725
19:35:20,836;485
19:35:20,840;762
19:35:20,844;594
19:35:20,848;649
19:35:20,852;586
19:35:20,855;271
19:35:20,859;989
19:35:20,863;806
19:35:20,867;861
19:35:20,871;722
19:35:20,875;1181
19:35:20,879;540
19:35:20,883;793
19:35:20,887;334
19:35:20,891;790
19:35:20,895;1077
19:35:20,898;284
19:35:20,902;1025
19:35:20,906;747
19:35:20,910;883
19:35:20,914;761
19:35:20,918;309
19:35:20,922;1287
19:35:20,926;639
19:35:20,930;581
19:35:20,934;948
19:35:20,938;796
19:35:20,941;1238
19:35:20,945;424
19:35:20,949;479
19:35:20,953;1037
19:35:20,957;366
19:35:20,961;899
19:35:20,965;842
19:35:20,969;592
19:35:20,973;1035
19:35:20,977;880
19:35:20,980;233
19:35:20,984;1316
19:35:20,988;794
19:35:20,992;931
19:35:20,996;1183
19:35:21,000;841
19:35:21,004;940
19:35:21,008;582
19:35:21,012;935
19:35:21,016;1201
19:35:21,020;726
19:35:21,023;1254
19:35:21,027;1340
19:35:21,031;794
19:35:21,035;1081
19:35:21,039;607
19:35:21,043;642
19:35:21,047;1008
19:35:21,051;515
19:35:21,055;1274
19:35:21,059;896
19:35:21,062;1123
19:35:21,066;1225
19:35:21,070;859
19:35:21,074;1056
19:35:21,078;731
19:35:21,082;1071
19:35:21,086;763
19:35:21,090;1142
19:35:21,094;1174
19:35:21,098;651
19:35:21,102;1067
19:35:21,105;438
19:35:21,109;894
19:35:21,113;1155
19:35:21,117;709
19:35:21,121;1442
19:35:21,125;1039
19:35:21,129;893
19:35:21,133;1035
19:35:21,137;716
19:35:21,141;1150
19:35:21,145;811
19:35:21,148;853
19:35:21,152;759
19:35:21,156;1057
19:35:21,160;999
19:35:21,164;626
19:35:21,168;650
19:35:21,172;740
19:35:21,176;650
19:35:21,180;1207
19:35:21,184;1065
19:35:21,188;1021
19:35:21,191;845
19:35:21,195;1098
19:35:21,199;278
19:35:21,203;1134
19:35:21,207;816
19:35:21,211;1043
19:35:21,215;1053
19:35:21,219;817
19:35:21,223;1156
19:35:21,227;736
19:35:21,230;561
19:35:21,234;1491
19:35:21,238;365
19:35:21,242;1125
19:35:21,246;1071
19:35:21,250;758
19:35:21,254;1132
19:35:21,258;804
19:35:21,262;530
19:35:21,266;1215
19:35:21,270;822
19:35:21,273;1136
19:35:21,277;694
19:35:21,281;1045
19:35:21,285;631
19:35:21,289;828
19:35:21,293;741
19:35:21,297;944
19:35:21,301;1326
19:35:21,305;720
19:35:21,309;1221
19:35:21,312;1360
19:35:21,316;646
19:35:21,320;1125
19:35:21,324;539
19:35:21,328;1251
19:35:21,332;1202
19:35:21,336;1286
19:35:21,340;2179
19:35:21,344;2063
19:35:21,348;2941
19:35:21,352;3268
19:35:21,355;2809
19:35:21,359;3206
19:35:21,363;3349
19:35:21,367;1758
19:35:21,371;1382
19:35:21,375;1081
19:35:21,379;806
19:35:21,383;1194
19:35:21,387;330
19:35:21,391;1627
19:35:21,395;1242
19:35:21,398;723
19:35:21,402;1589
19:35:21,406;1513
19:35:21,410;863
19:35:21,414;1682
19:35:21,418;617
19:35:21,422;1377
19:35:21,426;938
19:35:21,430;923
19:35:21,434;1712
19:35:21,437;955
19:35:21,441;1265
19:35:21,445;1111
19:35:21,449;956
19:35:21,453;1493
19:35:21,457;1021
19:35:21,461;1676
19:35:21,465;1560
19:35:21,469;1582
19:35:21,473;1895
19:35:21,477;1542
19:35:21,480;1381
19:35:21,484;1470
19:35:21,488;1385
19:35:21,492;1366
19:35:21,496;1276
19:35:21,500;1844
19:35:21,504;1191
19:35:21,508;1711
19:35:21,512;1059
19:35:21,516;1680
19:35:21,520;1263
19:35:21,523;1633
19:35:21,527;1542
19:35:21,531;1594
19:35:21,535;1974
19:35:21,539;1687
19:35:21,543;1347
19:35:21,547;1702
19:35:21,551;1424
19:35:21,555;1627
19:35:21,559;1447
19:35:21,562;1816
19:35:21,566;1311
19:35:21,570;1749
19:35:21,574;759
19:35:21,578;1792
19:35:21,582;1641
19:35:21,586;1834
19:35:21,590;1330
19:35:21,594;2205
19:35:21,598;1561
19:35:21,602;1625
19:35:21,605;1437
19:35:21,609;2062
19:35:21,613;1641
19:35:21,617;1982
19:35:21,621;1997
19:35:21,625;1488
19:35:21,629;1707
19:35:21,633;2086
19:35:21,637;830
19:35:21,641;2198
19:35:21,645;1817
19:35:21,648;1557
19:35:21,652;2158
19:35:21,656;1445
19:35:21,660;1929
19:35:21,664;1088
19:35:21,668;927
19:35:21,672;1655
19:35:21,676;923
19:35:21,680;1314
19:35:21,684;1457
19:35:21,687;1212
19:35:21,691;1600
19:35:21,695;1192
19:35:21,699;739
19:35:21,703;1607
19:35:21,707;1058
19:35:21,711;1150
19:35:21,715;1853
19:35:21,719;1109
19:35:21,723;1716
19:35:21,727;1211
19:35:21,730;815
19:35:21,734;1678
19:35:21,738;1220
19:35:21,742;1503
19:35:21,746;1196
19:35:21,750;1800
19:35:21,754;1393
19:35:21,758;1098
19:35:21,762;1568
19:35:21,766;1378
19:35:21,770;1177
19:35:21,773;1701
19:35:21,777;918
19:35:21,781;1807
19:35:21,785;1707
19:35:21,789;1629
19:35:21,793;1612
19:35:21,797;1673
19:35:21,801;1996
19:35:21,805;1425
19:35:21,809;1472
19:35:21,812;1759
19:35:21,816;1346
19:35:21,820;1705
19:35:21,824;1306
19:35:21,828;1415
19:35:21,832;1982
19:35:21,836;1661
19:35:21,840;1890
19:35:21,844;1825
19:35:21,848;1889
19:35:21,852;2062
19:35:21,855;1406
19:35:21,859;1975
19:35:21,863;1643
19:35:21,867;2048
19:35:21,871;1608
19:35:21,875;1621
19:35:21,879;1440
19:35:21,883;1421
19:35:21,887;1044
19:35:21,891;1294
19:35:21,895;1973
19:35:21,898;1677
19:35:21,902;1657
19:35:21,906;1887
19:35:21,910;1775
19:35:21,914;1698
19:35:21,918;1087
19:35:21,922;2037
19:35:21,926;1760
19:35:21,930;1504
19:35:21,934;1521
19:35:21,937;1768
19:35:21,941;1959
19:35:21,945;1608
19:35:21,949;1239
19:35:21,953;1822
19:35:21,957;1330
19:35:21,961;1649
19:35:21,965;1572
19:35:21,969;1843
19:35:21,973;1945
19:35:21,977;1845
19:35:21,980;1383
19:35:21,984;1461
19:35:21,988;1889
19:35:21,992;1643
19:35:21,996;1499
19:35:22,000;1854
19:35:22,004;1678
19:35:22,008;1599
19:35:22,012;1144
19:35:22,016;1776
19:35:22,020;1488
19:35:22,023;1376
19:35:22,027;1859
19:35:22,031;1831
19:35:22,035;1678
19:35:22,039;2072
19:35:22,043;1523
19:35:22,047;1944
19:35:22,051;1653
19:35:22,055;1738
19:35:22,059;1501
19:35:22,062;1916
19:35:22,066;1472
19:35:22,070;1915
19:35:22,074;1507
19:35:22,078;1879
19:35:22,082;1913
19:35:22,086;1827
19:35:22,090;1588
19:35:22,094;1951
19:35:22,098;1568
19:35:22,102;1834
19:35:22,105;939
19:35:22,109;1888
19:35:22,113;1957
19:35:22,117;1118
19:35:22,121;1993
19:35:22,125;1831
19:35:22,129;1695
19:35:22,133;2188
19:35:22,137;1167
19:35:22,141;2357
19:35:22,145;2139
19:35:22,148;1476
19:35:22,152;2112
19:35:22,156;1530
19:35:22,160;2190
19:35:22,164;1205
19:35:22,168;1424
19:35:22,172;2073
19:35:22,176;1751
19:35:22,180;1925
19:35:22,184;2296
19:35:22,187;1901
19:35:22,191;2222
19:35:22,195;1862
19:35:22,199;1481
19:35:22,203;2443
19:35:22,207;2279
19:35:22,211;1851
19:35:22,215;2429
19:35:22,219;1943
19:35:22,223;1830
19:35:22,227;1703
19:35:22,230;1493
19:35:22,234;2145
19:35:22,238;1559
19:35:22,242;1807
19:35:22,246;2056
19:35:22,250;1757
19:35:22,254;2362
19:35:22,258;1906
19:35:22,262;1864
19:35:22,266;2237
19:35:22,270;1922
19:35:22,273;2439
19:35:22,277;1792
19:35:22,281;2339
19:35:22,285;1862
19:35:22,289;1755
19:35:22,293;1985
19:35:22,297;1788
19:35:22,301;2294
19:35:22,305;2056
19:35:22,309;2118
19:35:22,312;2207
19:35:22,316;2236
19:35:22,320;2472
19:35:22,324;2437
19:35:22,328;3482
19:35:22,332;3306
19:35:22,336;4159
19:35:22,340;3535
19:35:22,344;4456
19:35:22,348;3688
19:35:22,352;3079
19:35:22,355;2230
19:35:22,359;2509
19:35:22,363;1929
19:35:22,367;1861
19:35:22,371;1976
19:35:22,375;2378
19:35:22,379;2060
19:35:22,383;2156
19:35:22,387;1612
19:35:22,391;2494
19:35:22,395;1860
19:35:22,398;2042
19:35:22,402;2396
19:35:22,406;2150
19:35:22,410;2069
19:35:22,414;2331
19:35:22,418;1312
19:35:22,422;2285
19:35:22,426;2077
19:35:22,430;1986
19:35:22,434;2537
19:35:22,438;1807
19:35:22,441;2557
19:35:22,445;1747
19:35:22,449;1521
19:35:22,453;2515
19:35:22,457;1889
19:35:22,461;2261
19:35:22,465;1977
19:35:22,469;2233
19:35:22,473;2095
19:35:22,477;1808
19:35:22,480;1968
19:35:22,484;2121
19:35:22,488;1839
19:35:22,492;2297
19:35:22,496;2170
19:35:22,500;2576
19:35:22,504;2019
19:35:22,508;2009
19:35:22,512;1994
19:35:22,516;1844
19:35:22,520;2437
19:35:22,523;1733
19:35:22,527;2335
19:35:22,531;2136
19:35:22,535;2276
19:35:22,539;2275
19:35:22,543;2182
19:35:22,547;2060
19:35:22,551;2668
19:35:22,555;2304
19:35:22,559;2295
19:35:22,562;2490
19:35:22,566;2189
19:35:22,570;2341
19:35:22,574;2299
19:35:22,578;2082
19:35:22,582;2977
19:35:22,586;2509
19:35:22,590;2458
19:35:22,594;2870
19:35:22,598;2356
19:35:22,602;2792
19:35:22,605;2261
19:35:22,609;2473
19:35:22,613;3071
19:35:22,617;2489
19:35:22,621;2768
19:35:22,625;2659
19:35:22,629;2625
19:35:22,633;2679
19:35:22,637;1872
19:35:22,641;2539
19:35:22,645;2333
19:35:22,648;2339
19:35:22,652;2437
19:35:22,656;1996
19:35:22,660;2390
19:35:22,664;2108
19:35:22,668;1823
19:35:22,672;2392
19:35:22,676;2330
19:35:22,680;2216
19:35:22,684;2644
19:35:22,688;2321
19:35:22,691;2481
19:35:22,695;1998
19:35:22,699;1650
19:35:22,703;2113
19:35:22,707;2082
19:35:22,711;2075
19:35:22,715;2358
19:35:22,719;2561
19:35:22,723;2028
19:35:22,727;2471
19:35:22,730;1331
19:35:22,734;2565
19:35:22,738;1889
19:35:22,742;1793
19:35:22,746;2118
19:35:22,750;2099
19:35:22,754;1933
19:35:22,758;2116
19:35:22,762;2230
19:35:22,766;2322
19:35:22,770;2146
19:35:22,773;2388
19:35:22,777;2388
19:35:22,781;2136
19:35:22,785;2144
19:35:22,789;2157
19:35:22,793;1629
19:35:22,797;2128
19:35:22,801;2251
19:35:22,805;2286
19:35:22,809;2329
19:35:22,812;2369
19:35:22,816;1798
19:35:22,820;2158
19:35:22,824;1518
19:35:22,828;2049
19:35:22,832;2294
19:35:22,836;1619
19:35:22,840;2435
19:35:22,844;1973
19:35:22,848;1949
19:35:22,852;2069
19:35:22,855;1464
19:35:22,859;2608
19:35:22,863;1271
19:35:22,867;2164
19:35:22,871;1869
19:35:22,875;2021
19:35:22,879;1831
19:35:22,883;1693
19:35:22,887;1674
19:35:22,891;2313
19:35:22,895;1969
19:35:22,898;1899
19:35:22,902;2515
19:35:22,906;1788
19:35:22,910;1947
19:35:22,914;2216
19:35:22,918;1540
19:35:22,922;2494
19:35:22,926;2138
19:35:22,930;2170
19:35:22,934;2567
19:35:22,938;2060
19:35:22,941;2421
19:35:22,945;1944
19:35:22,949;1543
19:35:22,953;2171
19:35:22,957;1454
19:35:22,961;2014
19:35:22,965;2315
19:35:22,969;1782
19:35:22,973;2516
19:35:22,977;1629
19:35:22,980;2048
19:35:22,984;2175
19:35:22,988;1685
19:35:22,992;2116
19:35:22,996;2052
19:35:23,000;2024
19:35:23,004;1991
19:35:23,008;1700
19:35:23,012;2346
19:35:23,016;2271
19:35:23,020;2100
19:35:23,023;2505
19:35:23,027;2206
19:35:23,031;2394
19:35:23,035;1911
19:35:23,039;2107
19:35:23,043;1982
19:35:23,047;2180
19:35:23,051;2169
19:35:23,055;2301
19:35:23,059;2425
19:35:23,062;2506
19:35:23,066;2452
19:35:23,070;2091
19:35:23,074;2074
19:35:23,078;2104
19:35:23,082;2297
19:35:23,086;1946
19:35:23,090;1940
19:35:23,094;2944
19:35:23,098;1750
19:35:23,102;2424
19:35:23,105;1902
19:35:23,109;2646
19:35:23,113;2455
19:35:23,117;2191
19:35:23,121;2537
19:35:23,125;2259
19:35:23,129;2089
19:35:23,133;2688
19:35:23,137;1926
19:35:23,141;2778
19:35:23,145;2260
19:35:23,148;2356
19:35:23,152;2213
19:35:23,156;2488
19:35:23,160;2286
19:35:23,164;2319
19:35:23,168;1999
19:35:23,172;2299
19:35:23,176;2078
19:35:23,180;2611
19:35:23,184;2099
19:35:23,187;2553
19:35:23,191;2475
19:35:23,195;2024
19:35:23,199;1965
19:35:23,203;2283
19:35:23,207;2439
19:35:23,211;2266
19:35:23,215;2314
19:35:23,219;2496
19:35:23,223;2101
19:35:23,227;2124
19:35:23,230;1551
19:35:23,234;2492
19:35:23,238;1833
19:35:23,242;1935
19:35:23,246;2359
19:35:23,250;2267
19:35:23,254;2461
19:35:23,258;2578
19:35:23,262;1650
19:35:23,266;2603
19:35:23,270;1962
19:35:23,273;2416
19:35:23,277;2099
19:35:23,281;3253
19:35:23,285;3047
19:35:23,289;3468
19:35:23,293;3969
19:35:23,297;3799
19:35:23,301;3531
19:35:23,305;3605
19:35:23,309;3214
19:35:23,312;2851
19:35:23,316;1898
19:35:23,320;2652
19:35:23,324;1543
19:35:23,328;2087
19:35:23,332;2105
19:35:23,336;1816
19:35:23,340;2812
19:35:23,344;1963
19:35:23,348;1965
19:35:23,352;2406
19:35:23,355;1546
19:35:23,359;2447
19:35:23,363;2430
19:35:23,367;2234
19:35:23,371;2573
19:35:23,375;2133
19:35:23,379;2256
19:35:23,383;2573
19:35:23,387;2254
19:35:23,391;2318
19:35:23,395;2857
19:35:23,398;2603
19:35:23,402;2697
19:35:23,406;2498
19:35:23,410;2773
19:35:23,414;2732
19:35:23,418;1874
19:35:23,422;2792
19:35:23,426;2653
19:35:23,430;2190
19:35:23,434;3048
19:35:23,437;2275
19:35:23,441;2619
19:35:23,445;2780
19:35:23,449;1889
19:35:23,453;2986
19:35:23,457;2633
19:35:23,461;2814
19:35:23,465;2439
19:35:23,469;2961
19:35:23,473;3078
19:35:23,477;2479
19:35:23,480;2407
19:35:23,484;2595
19:35:23,488;2326
19:35:23,492;2845
19:35:23,496;2414
19:35:23,500;3105
19:35:23,504;2558
19:35:23,508;2927
19:35:23,512;2091
19:35:23,516;2817
19:35:23,520;3083
19:35:23,523;2546
19:35:23,527;2929
19:35:23,531;2964
19:35:23,535;3062
19:35:23,539;2808
19:35:23,543;2457
19:35:23,547;3131
19:35:23,551;2834
19:35:23,555;2816
19:35:23,559;2808
19:35:23,562;2815
19:35:23,566;3181
19:35:23,570;2686
19:35:23,574;2295
19:35:23,578;3086
19:35:23,582;2713
19:35:23,586;2612
19:35:23,590;3100
19:35:23,594;2523
19:35:23,598;2691
19:35:23,602;2761
19:35:23,605;2252
19:35:23,609;2919
19:35:23,613;2702
19:35:23,617;2473
19:35:23,621;2344
19:35:23,625;2589
19:35:23,629;2259
19:35:23,633;2339
19:35:23,637;1804
19:35:23,641;2607
19:35:23,645;1914
19:35:23,648;2508
19:35:23,652;2375
19:35:23,656;2431
19:35:23,660;2801
19:35:23,664;2324
19:35:23,668;1876
19:35:23,672;2890
19:35:23,676;2044
19:35:23,680;2867
19:35:23,684;2301
19:35:23,687;2538
19:35:23,691;2373
19:35:23,695;2016
19:35:23,699;2064
19:35:23,703;2382
19:35:23,707;2468
19:35:23,711;2819
19:35:23,715;2824
19:35:23,719;2740
19:35:23,723;2750
19:35:23,727;2366
19:35:23,730;2175
19:35:23,734;2673
19:35:23,738;2562
19:35:23,742;2761
19:35:23,746;2528
19:35:23,750;2716
19:35:23,754;2649
19:35:23,758;2396
19:35:23,762;2263
19:35:23,766;2403
19:35:23,770;2313
19:35:23,773;2819
19:35:23,777;2172
19:35:23,781;2814
19:35:23,785;2675
19:35:23,789;2271
19:35:23,793;2118
19:35:23,797;2365
19:35:23,801;2666
19:35:23,805;2377
19:35:23,809;2533
19:35:23,812;2734
19:35:23,816;2351
19:35:23,820;2210
19:35:23,824;2113
19:35:23,828;2108
19:35:23,832;2632
19:35:23,836;2054
19:35:23,840;2661
19:35:23,844;2585
19:35:23,848;2661
19:35:23,852;2979
19:35:23,855;2081
19:35:23,859;2890
19:35:23,863;2381
19:35:23,867;2826
19:35:23,871;2969
19:35:23,875;2606
19:35:23,879;2813
19:35:23,883;2779
19:35:23,887;2078
19:35:23,891;2491
19:35:23,895;2379
19:35:23,898;2696
19:35:23,902;2342
19:35:23,906;2886
19:35:23,910;2616
19:35:23,914;3010
19:35:23,918;2238
19:35:23,922;2828
19:35:23,926;2451
19:35:23,930;2732
19:35:23,934;2275
19:35:23,938;2645
19:35:23,941;2749
19:35:23,945;2691
19:35:23,949;1926
19:35:23,953;2668
19:35:23,957;2763
19:35:23,961;2516
19:35:23,965;2455
19:35:23,969;2974
19:35:23,973;2850
19:35:23,977;2614
19:35:23,980;2203
19:35:23,984;2751
19:35:23,988;2371
19:35:23,992;2782
19:35:23,996;2384
19:35:24,000;2698
19:35:24,004;2657
19:35:24,008;2477
19:35:24,012;2067
19:35:24,016;2333
19:35:24,020;3081
19:35:24,023;2196
19:35:24,027;2925
19:35:24,031;2906
19:35:24,035;2692
19:35:24,039;2863
19:35:24,043;2163
19:35:24,047;2650
19:35:24,051;2771
19:35:24,055;2420
19:35:24,059;2698
19:35:24,062;2657
19:35:24,066;2782
19:35:24,070;2676
19:35:24,074;2291
19:35:24,078;2533
19:35:24,082;2504
19:35:24,086;2311
19:35:24,090;2565
19:35:24,094;2560
19:35:24,098;2308
19:35:24,102;2604
19:35:24,105;1817
19:35:24,109;2898
19:35:24,113;2533
19:35:24,117;2735
19:35:24,121;2926
19:35:24,125;2576
19:35:24,129;2544
19:35:24,133;2899
19:35:24,137;1901
19:35:24,141;3290
19:35:24,145;2986
19:35:24,148;3038
19:35:24,152;3730
19:35:24,156;3409
19:35:24,160;3431
19:35:24,164;4339
19:35:24,168;3740
19:35:24,172;4619
19:35:24,176;4512
19:35:24,180;3742
19:35:24,184;4018
19:35:24,188;2538
19:35:24,191;2965
19:35:24,195;1919
19:35:24,199;2555
19:35:24,203;2538
19:35:24,207;2510
19:35:24,211;2664
19:35:24,215;2580
19:35:24,219;3039
19:35:24,223;2885
19:35:24,227;2861
19:35:24,230;2727
19:35:24,234;2960
19:35:24,238;2711
19:35:24,242;2953
19:35:24,246;2870
19:35:24,250;3073
19:35:24,254;2947
19:35:24,258;2659
19:35:24,262;2550
19:35:24,266;3142
19:35:24,270;2577
19:35:24,273;3193
19:35:24,277;2977
19:35:24,281;3060
19:35:24,285;2883
19:35:24,289;2990
19:35:24,293;2787
19:35:24,297;3238
19:35:24,301;3005
19:35:24,305;3364
19:35:24,309;3128
19:35:24,312;3311
19:35:24,316;3172
19:35:24,320;3177
19:35:24,324;2493
19:35:24,328;2957
19:35:24,332;2679
19:35:24,336;2790
19:35:24,340;3309
19:35:24,344;2815
19:35:24,348;3289
19:35:24,352;2876
19:35:24,355;2609
19:35:24,359;3004
19:35:24,363;2465
19:35:24,367;2894
19:35:24,371;2880
19:35:24,375;2957
19:35:24,379;3312
19:35:24,383;2947
19:35:24,387;2788
19:35:24,391;3040
19:35:24,395;3121
19:35:24,398;3172
19:35:24,402;2709
19:35:24,406;3622
19:35:24,410;3190
19:35:24,414;3173
19:35:24,418;2849
19:35:24,422;3524
19:35:24,426;3480
19:35:24,430;3247
19:35:24,434;3771
19:35:24,438;3226
19:35:24,441;3491
19:35:24,445;3361
19:35:24,449;2784
19:35:24,453;3551
19:35:24,457;2802
19:35:24,461;3218
19:35:24,465;3019
19:35:24,469;3292
19:35:24,473;3173
19:35:24,477;3099
19:35:24,480;2774
19:35:24,484;2754
19:35:24,488;2814
19:35:24,492;2799
19:35:24,496;2812
19:35:24,500;3445
19:35:24,504;2652
19:35:24,508;2594
19:35:24,512;2514
19:35:24,516;2453
19:35:24,520;2749
19:35:24,523;2242
19:35:24,527;2854
19:35:24,531;2990
19:35:24,535;2626
19:35:24,539;3076
19:35:24,543;2631
19:35:24,547;3076
19:35:24,551;3011
19:35:24,555;2583
19:35:24,559;2939
19:35:24,562;2991
19:35:24,566;2652
19:35:24,570;3045
19:35:24,574;2702
19:35:24,578;2844
19:35:24,582;3109
19:35:24,586;2749
19:35:24,590;3505
19:35:24,594;3376
19:35:24,598;2839
19:35:24,602;3481
19:35:24,605;2860
19:35:24,609;3059
19:35:24,613;3248
19:35:24,617;3130
19:35:24,621;3419
19:35:24,625;3359
19:35:24,629;2836
19:35:24,633;3609
19:35:24,637;2363
19:35:24,641;3235
19:35:24,645;3246
19:35:24,648;2818
19:35:24,652;3660
19:35:24,656;2643
19:35:24,660;3241
19:35:24,664;2824
19:35:24,668;2348
19:35:24,672;3550
19:35:24,676;2586
19:35:24,680;3153
19:35:24,684;3009
19:35:24,687;3034
19:35:24,691;3053
19:35:24,695;3064
19:35:24,699;2748
19:35:24,703;3322
19:35:24,707;3114
19:35:24,711;2988
19:35:24,715;2940
19:35:24,719;3135
19:35:24,723;2911
19:35:24,727;2886
19:35:24,730;2541
19:35:24,734;3122
19:35:24,738;3439
19:35:24,742;2675
19:35:24,746;3370
19:35:24,750;2887
19:35:24,754;2642
19:35:24,758;3157
19:35:24,762;2376
19:35:24,766;3249
19:35:24,770;2852
19:35:24,773;3259
19:35:24,777;3220
19:35:24,781;3035
19:35:24,785;2937
19:35:24,789;3344
19:35:24,793;2238
19:35:24,797;3057
19:35:24,801;2986
19:35:24,805;2596
19:35:24,809;2857
19:35:24,812;3321
19:35:24,816;2704
19:35:24,820;2960
19:35:24,824;2496
19:35:24,828;3409
19:35:24,832;2797
19:35:24,836;2540
19:35:24,840;3030
19:35:24,844;2996
19:35:24,848;2706
19:35:24,852;3356
19:35:24,855;2500
19:35:24,859;3215
19:35:24,863;2868
19:35:24,867;3108
19:35:24,871;3383
19:35:24,875;3398
19:35:24,879;3457
19:35:24,883;4289
19:35:24,887;4245
19:35:24,891;4988
19:35:24,895;4981
19:35:24,898;4148
19:35:24,902;4986
19:35:24,906;3862
19:35:24,910;3338
19:35:24,914;2932
19:35:24,918;2782
19:35:24,922;3221
19:35:24,926;2618
19:35:24,930;2903
19:35:24,934;3182
19:35:24,937;3066
19:35:24,941;3254
19:35:24,945;2742
19:35:24,949;2588
19:35:24,953;3521
19:35:24,957;3054
19:35:24,961;3187
19:35:24,965;3717
19:35:24,969;3041
19:35:24,973;3674
19:35:24,977;3191
19:35:24,980;2947
19:35:24,984;3701
19:35:24,988;3107
19:35:24,992;3502
19:35:24,996;3213
19:35:25,000;3597
19:35:25,004;3525
19:35:25,008;3282
19:35:25,012;3420
19:35:25,016;3653
19:35:25,020;3351
19:35:25,023;3303
19:35:25,027;3558
19:35:25,031;3762
19:35:25,035;3243
19:35:25,039;3738
19:35:25,043;3068
19:35:25,047;3250
19:35:25,051;3694
19:35:25,055;3375
19:35:25,059;3550
19:35:25,062;3523
19:35:25,066;3600
19:35:25,070;3739
19:35:25,074;3179
19:35:25,078;3883
19:35:25,082;3425
19:35:25,086;3515
19:35:25,090;3493
19:35:25,094;3596
19:35:25,098;3708
19:35:25,102;3792
19:35:25,105;3284
19:35:25,109;3394
19:35:25,113;4080
19:35:25,117;3713
19:35:25,121;3760
19:35:25,125;3907
19:35:25,129;3706
19:35:25,133;4144
19:35:25,137;3067
19:35:25,141;3827
19:35:25,145;3951
19:35:25,148;3700
19:35:25,152;3905
19:35:25,156;3955
19:35:25,160;3764
19:35:25,164;3760
19:35:25,168;3276
19:35:25,172;3474
19:35:25,176;3025
19:35:25,180;3449
19:35:25,184;3502
19:35:25,187;3302
19:35:25,191;3384
19:35:25,195;3557
19:35:25,199;3259
19:35:25,203;3251
19:35:25,207;3526
19:35:25,211;3715
19:35:25,215;3175
19:35:25,219;3715
19:35:25,223;3517
19:35:25,227;3243
19:35:25,230;3313
19:35:25,234;3382
19:35:25,238;3529
19:35:25,242;3166
19:35:25,246;3541
19:35:25,250;3336
19:35:25,254;3222
19:35:25,258;3669
19:35:25,262;2561
19:35:25,266;3535
19:35:25,270;3425
19:35:25,273;3007
19:35:25,277;3198
19:35:25,281;3199
19:35:25,285;3058
19:35:25,289;3290
19:35:25,293;2752
19:35:25,297;3501
19:35:25,301;3649
19:35:25,305;3408
19:35:25,309;3572
19:35:25,312;3879
19:35:25,316;3302
19:35:25,320;3817
19:35:25,324;2647
19:35:25,328;3222
19:35:25,332;3372
19:35:25,336;2792
19:35:25,340;3279
19:35:25,344;3031
19:35:25,348;3044
19:35:25,352;3610
19:35:25,355;2400
19:35:25,359;3542
19:35:25,363;3687
19:35:25,367;3217
19:35:25,371;3575
19:35:25,375;3514
19:35:25,379;3510
19:35:25,383;3492
19:35:25,387;2799
19:35:25,391;3490
19:35:25,395;3023
19:35:25,398;3484
19:35:25,402;3593
19:35:25,406;3050
19:35:25,410;4104
19:35:25,414;3676
19:35:25,418;2913
19:35:25,422;3562
19:35:25,426;3743
19:35:25,430;3186
19:35:25,434;3656
19:35:25,437;3622
19:35:25,441;3764
19:35:25,445;3908
19:35:25,449;3156
19:35:25,453;4042
19:35:25,457;3789
19:35:25,461;3586
19:35:25,465;3686
19:35:25,469;3620
19:35:25,473;3653
19:35:25,477;3538
19:35:25,480;3040
19:35:25,484;3842
19:35:25,488;3096
19:35:25,492;3702
19:35:25,496;3270
19:35:25,500;3537
19:35:25,504;3382
19:35:25,508;3312
19:35:25,512;2910
19:35:25,516;3533
19:35:25,520;3431
19:35:25,523;3403
19:35:25,527;3346
19:35:25,531;3371
19:35:25,535;3368
19:35:25,539;3365
19:35:25,543;2833
19:35:25,547;3872
19:35:25,551;3453
19:35:25,555;3751
19:35:25,559;3317
19:35:25,562;3739
19:35:25,566;3961
19:35:25,570;3941
19:35:25,574;3632
19:35:25,578;3859
19:35:25,582;4576
19:35:25,586;5385
19:35:25,590;5506
19:35:25,594;5603
19:35:25,598;4590
19:35:25,602;4911
19:35:25,605;4186
19:35:25,609;2933
19:35:25,613;3855
19:35:25,617;4095
19:35:25,621;3729
19:35:25,625;3352
19:35:25,629;3721
19:35:25,633;3336
19:35:25,637;3178
19:35:25,641;3674
19:35:25,645;3047
19:35:25,648;3094
19:35:25,652;3651
19:35:25,656;3224
19:35:25,660;3525
19:35:25,664;3386
19:35:25,668;2791
19:35:25,672;3748
19:35:25,676;3287
19:35:25,680;3401
19:35:25,684;3587
19:35:25,688;3578
19:35:25,691;3874
19:35:25,695;3718
19:35:25,699;3600
19:35:25,703;3909
19:35:25,707;3729
19:35:25,711;3842
19:35:25,715;3529
19:35:25,719;3520
19:35:25,723;4090
19:35:25,727;3504
19:35:25,730;3519
19:35:25,734;3804
19:35:25,738;3559
19:35:25,742;3690
19:35:25,746;3287
19:35:25,750;4276
19:35:25,754;3845
19:35:25,758;3671
19:35:25,762;3686
19:35:25,766;3637
19:35:25,770;3962
19:35:25,773;3550
19:35:25,777;3897
19:35:25,781;4054
19:35:25,785;4245
19:35:25,789;4012
19:35:25,793;3809
19:35:25,797;4086
19:35:25,801;4068
19:35:25,805;4159
19:35:25,809;3863
19:35:25,812;4427
19:35:25,816;4035
19:35:25,820;3977
19:35:25,824;3461
19:35:25,828;4060
19:35:25,832;3870
19:35:25,836;4182
19:35:25,840;3879
19:35:25,844;4331
19:35:25,848;4044
19:35:25,852;4088
19:35:25,855;3518
19:35:25,859;3835
19:35:25,863;3988
19:35:25,867;3589
19:35:25,871;4281
19:35:25,875;4080
19:35:25,879;3856
19:35:25,883;4125
19:35:25,887;3331
19:35:25,891;3682
19:35:25,895;3830
19:35:25,898;3410
19:35:25,902;3911
19:35:25,906;3730
19:35:25,910;3666
19:35:25,914;3635
19:35:25,918;3334
19:35:25,922;3561
19:35:25,926;3356
19:35:25,930;3043
19:35:25,934;3246
19:35:25,938;3605
19:35:25,941;3208
19:35:25,945;3627
19:35:25,949;2851
19:35:25,953;3358
19:35:25,957;3534
19:35:25,961;3346
19:35:25,965;3669
19:35:25,969;3708
19:35:25,973;3576
19:35:25,977;3740
19:35:25,980;2584
19:35:25,984;3381
19:35:25,988;3311
19:35:25,992;3374
19:35:25,996;3295
19:35:26,000;3346
19:35:26,004;3529
19:35:26,008;3470
19:35:26,012;2880
19:35:26,016;3254
19:35:26,020;3432
19:35:26,023;3529
19:35:26,027;3041
19:35:26,031;3780
19:35:26,035;3548
19:35:26,039;3606
19:35:26,043;2948
19:35:26,047;3613
19:35:26,051;3517
19:35:26,055;3083
19:35:26,059;3543
19:35:26,062;3364
19:35:26,066;3082
19:35:26,070;3536
19:35:26,074;2897
19:35:26,078;3401
19:35:26,082;3132
19:35:26,086;3328
19:35:26,090;3474
19:35:26,094;3326
19:35:26,098;3699
19:35:26,102;3581
19:35:26,105;3135
19:35:26,109;3581
19:35:26,113;3335
19:35:26,117;3497
19:35:26,121;3711
19:35:26,125;3309
19:35:26,129;4075
19:35:26,133;3979
19:35:26,137;3454
19:35:26,141;4080
19:35:26,145;3444
19:35:26,148;3643
19:35:26,152;3844
19:35:26,156;3731
19:35:26,160;3951
19:35:26,164;3428
19:35:26,168;3209
19:35:26,172;3562
19:35:26,176;3124
19:35:26,180;3616
19:35:26,184;4014
19:35:26,187;3431
19:35:26,191;3717
19:35:26,195;3272
19:35:26,199;3209
19:35:26,203;3751
19:35:26,207;3741
19:35:26,211;3760
19:35:26,215;3329
19:35:26,219;3707
19:35:26,223;3487
19:35:26,227;3226
19:35:26,230;3098
19:35:26,234;3667
19:35:26,238;3442
19:35:26,242;3615
19:35:26,246;3343
19:35:26,250;4198
19:35:26,254;3635
19:35:26,258;3473
19:35:26,262;3580
19:35:26,266;3575
19:35:26,270;3302
19:35:26,273;3420
19:35:26,277;3691
19:35:26,281;3311
19:35:26,285;3782
19:35:26,289;3490
19:35:26,293;3918
19:35:26,297;3691
19:35:26,301;4088
19:35:26,305;5119
19:35:26,309;5289
19:35:26,312;5860
19:35:26,316;4522
19:35:26,320;4659
19:35:26,324;4137
19:35:26,328;3775
19:35:26,332;3084
19:35:26,336;4247
19:35:26,340;3941
19:35:26,344;3916
19:35:26,348;3300
19:35:26,352;3577
19:35:26,355;3695
19:35:26,359;3597
19:35:26,363;3875
19:35:26,367;3461
19:35:26,371;4124
19:35:26,375;3802
19:35:26,379;3563
19:35:26,383;3464
19:35:26,387;3102
19:35:26,391;3833
19:35:26,395;2928
19:35:26,398;3595
19:35:26,402;3676
19:35:26,406;3831
19:35:26,410;3728
19:35:26,414;3469
19:35:26,418;3518
19:35:26,422;3767
19:35:26,426;3471
19:35:26,430;3789
19:35:26,434;4065
19:35:26,437;3654
19:35:26,441;3658
19:35:26,445;3773
19:35:26,449;3139
19:35:26,453;3765
19:35:26,457;3742
19:35:26,461;3875
19:35:26,465;3487
19:35:26,469;3632
19:35:26,473;3641
19:35:26,477;3458
19:35:26,480;3316
19:35:26,484;3869
19:35:26,488;3630
19:35:26,492;3853
19:35:26,496;3668
19:35:26,500;3727
19:35:26,504;3536
19:35:26,508;3651
19:35:26,512;3461
19:35:26,516;3915
19:35:26,520;3666
19:35:26,523;4020
19:35:26,527;3784
19:35:26,531;4482
19:35:26,535;3818
19:35:26,539;3792
19:35:26,543;4077
19:35:26,547;3848
19:35:26,551;4253
19:35:26,555;3815
19:35:26,559;3852
19:35:26,562;4620
19:35:26,566;3662
19:35:26,570;4197
19:35:26,574;3944
19:35:26,578;3613
19:35:26,582;4388
19:35:26,586;3849
19:35:26,590;4008
19:35:26,594;4321
19:35:26,598;3870
19:35:26,602;4404
19:35:26,605;3515
19:35:26,609;3921
19:35:26,613;3928
19:35:26,617;3695
19:35:26,621;3940
19:35:26,625;3661
19:35:26,629;3690
19:35:26,633;4179
19:35:26,637;3455
19:35:26,641;4077
19:35:26,645;4111
19:35:26,648;3962
19:35:26,652;3980
19:35:26,656;3926
19:35:26,660;4018
19:35:26,664;3743
19:35:26,668;3224
19:35:26,672;4139
19:35:26,676;3899
19:35:26,680;3733
19:35:26,684;3979
19:35:26,687;3980
19:35:26,691;3762
19:35:26,695;3699
19:35:26,699;3297
19:35:26,703;3759
19:35:26,707;3326
19:35:26,711;3762
19:35:26,715;3925
19:35:26,719;3336
19:35:26,723;4153
19:35:26,727;3564
19:35:26,730;3106
19:35:26,734;4234
19:35:26,738;3174
19:35:26,742;3550
19:35:26,746;3911
19:35:26,750;3582
19:35:26,754;3642
19:35:26,758;3530
19:35:26,762;3375
19:35:26,766;3943
19:35:26,770;3617
19:35:26,773;3550
19:35:26,777;3873
19:35:26,781;3698
19:35:26,785;3602
19:35:26,789;3461
19:35:26,793;3199
19:35:26,797;3865
19:35:26,801;3708
19:35:26,805;3678
19:35:26,809;4039
19:35:26,812;3939
19:35:26,816;3572
19:35:26,820;3827
19:35:26,824;3192
19:35:26,828;3549
19:35:26,832;3894
19:35:26,836;3761
19:35:26,840;3920
19:35:26,844;3812
19:35:26,848;3889
19:35:26,852;3623
19:35:26,855;3130
19:35:26,859;3756
19:35:26,863;3608
19:35:26,867;3716
19:35:26,871;3872
19:35:26,875;3949
19:35:26,879;3757
19:35:26,883;3481
19:35:26,887;3224
19:35:26,891;3722
19:35:26,895;3295
19:35:26,898;3535
19:35:26,902;4318
19:35:26,906;3689
19:35:26,910;4223
19:35:26,914;3746
19:35:26,918;3764
19:35:26,922;3967
19:35:26,926;3357
19:35:26,930;4184
19:35:26,934;3798
19:35:26,937;3753
19:35:26,941;4322
19:35:26,945;3688
19:35:26,949;3414
19:35:26,953;3970
19:35:26,957;3672
19:35:26,961;3914
19:35:26,965;4019
19:35:26,969;4231
19:35:26,973;4036
19:35:26,977;3998
19:35:26,980;3812
19:35:26,984;4046
19:35:26,988;4058
19:35:26,992;4386
19:35:26,996;4130
19:35:27,000;4116
19:35:27,004;4083
19:35:27,008;4102
19:35:27,012;3791
19:35:27,016;4182
19:35:27,020;3890
19:35:27,023;4286
19:35:27,027;4012
19:35:27,031;4565
19:35:27,035;4378
19:35:27,039;3930
19:35:27,043;3988
19:35:27,047;4059
19:35:27,051;4007
19:35:27,055;3985
19:35:27,059;3898
19:35:27,062;4212
19:35:27,066;3933
19:35:27,070;4461
19:35:27,074;3678
19:35:27,078;3943
19:35:27,082;4470
19:35:27,086;3765
19:35:27,090;3678
19:35:27,094;4555
19:35:27,098;3785
19:35:27,102;4540
19:35:27,105;3836
19:35:27,109;4013
19:35:27,113;4431
19:35:27,117;3591
19:35:27,121;4198
19:35:27,125;4001
19:35:27,129;3809
19:35:27,133;4609
19:35:27,137;3709
19:35:27,141;4504
19:35:27,145;4062
19:35:27,148;4060
19:35:27,152;4075
19:35:27,156;3998
19:35:27,160;4180
19:35:27,164;4196
19:35:27,168;3612
19:35:27,172;4209
19:35:27,176;3934
19:35:27,180;3903
19:35:27,184;4230
19:35:27,188;4210
19:35:27,191;4319
19:35:27,195;4411
19:35:27,199;3906
19:35:27,203;4306
19:35:27,207;4012
19:35:27,211;4087
19:35:27,215;3961
19:35:27,219;3856
19:35:27,223;4216
19:35:27,227;3962
19:35:27,230;3452
19:35:27,234;4161
19:35:27,238;3668
19:35:27,242;4051
19:35:27,246;4002
19:35:27,250;4380
19:35:27,254;4108
19:35:27,258;3886
19:35:27,262;3538
19:35:27,266;3837
19:35:27,270;4154
19:35:27,273;3766
19:35:27,277;3875
19:35:27,281;4230
19:35:27,285;3735
19:35:27,289;3904
19:35:27,293;3768
19:35:27,297;4008
19:35:27,301;4503
19:35:27,305;3556
19:35:27,309;4188
19:35:27,312;4358
19:35:27,316;3942
19:35:27,320;4347
19:35:27,324;3447
19:35:27,328;4208
19:35:27,332;3671
19:35:27,336;3986
19:35:27,340;4069
19:35:27,344;3776
19:35:27,348;4182
19:35:27,352;3765
19:35:27,355;3564
19:35:27,359;3956
19:35:27,363;4213
19:35:27,367;3581
19:35:27,371;4416
19:35:27,375;4016
19:35:27,379;3688
19:35:27,383;4341
19:35:27,387;3361
19:35:27,391;4725
19:35:27,395;4486
19:35:27,398;3815
19:35:27,402;5614
19:35:27,406;5860
19:35:27,410;5860
19:35:27,414;5325
19:35:27,418;4609
19:35:27,422;5353
19:35:27,426;4170
19:35:27,430;4024
19:35:27,434;4157
19:35:27,438;4296
19:35:27,441;4169
19:35:27,445;3803
19:35:27,449;3500
19:35:27,453;4275
19:35:27,457;3998
19:35:27,461;4322
19:35:27,465;4034
19:35:27,469;3976
19:35:27,473;4396
19:35:27,477;4018
19:35:27,480;3749
19:35:27,484;3943
19:35:27,488;3594
19:35:27,492;4231
19:35:27,496;3989
19:35:27,500;4252
19:35:27,504;4275
19:35:27,508;4121
19:35:27,512;3677
19:35:27,516;4107
19:35:27,520;3922
19:35:27,523;4353
19:35:27,527;4028
19:35:27,531;4531
19:35:27,535;4349
19:35:27,539;3935
19:35:27,543;4010
19:35:27,547;4068
19:35:27,551;4382
19:35:27,555;4538
19:35:27,559;3936
19:35:27,562;4803
19:35:27,566;3940
19:35:27,570;4536
19:35:27,574;3341
19:35:27,578;3932
19:35:27,582;4317
19:35:27,586;3572
19:35:27,590;4089
19:35:27,594;3730
19:35:27,598;3837
19:35:27,602;3977
19:35:27,605;3408
19:35:27,609;4181
19:35:27,613;3851
19:35:27,617;3808
19:35:27,621;4311
19:35:27,625;3727
19:35:27,629;4103
19:35:27,633;3980
19:35:27,637;4020
19:35:27,641;4213
19:35:27,645;3734
19:35:27,648;4370
19:35:27,652;4321
19:35:27,656;3905
19:35:27,660;4432
19:35:27,664;3825
19:35:27,668;3967
19:35:27,672;4146
19:35:27,676;4067
19:35:27,680;4165
19:35:27,684;4120
19:35:27,688;4091
19:35:27,691;4226
19:35:27,695;4160
19:35:27,699;4033
19:35:27,703;4202
19:35:27,707;4111
19:35:27,711;4282
19:35:27,715;4230
19:35:27,719;3981
19:35:27,723;4485
19:35:27,727;3607
19:35:27,730;3508
19:35:27,734;4020
19:35:27,738;3311
19:35:27,742;3962
19:35:27,746;3777
19:35:27,750;3909
19:35:27,754;4052
19:35:27,758;3736
19:35:27,762;3713
19:35:27,766;3518
19:35:27,770;4400
19:35:27,773;3632
19:35:27,777;3782
19:35:27,781;4645
19:35:27,785;4218
19:35:27,789;4355
19:35:27,793;4061
19:35:27,797;4091
19:35:27,801;4406
19:35:27,805;4014
19:35:27,809;3962
19:35:27,812;4432
19:35:27,816;3838
19:35:27,820;4424
19:35:27,824;4039
19:35:27,828;4238
19:35:27,832;4331
19:35:27,836;4176
19:35:27,840;4268
19:35:27,844;4280
19:35:27,848;3821
19:35:27,852;4405
19:35:27,855;4132
19:35:27,859;4064
19:35:27,863;4354
19:35:27,867;3973
19:35:27,871;4424
19:35:27,875;4309
19:35:27,879;3979
19:35:27,883;4048
19:35:27,887;3637
19:35:27,891;3787
19:35:27,895;4274
19:35:27,898;3696
19:35:27,902;4551
19:35:27,906;3698
19:35:27,910;4471
19:35:27,914;4397
19:35:27,918;3691
19:35:27,922;4563
19:35:27,926;4200
19:35:27,930;3796
19:35:27,934;3694
19:35:27,937;3573
19:35:27,941;3946
19:35:27,945;3706
19:35:27,949;3278
19:35:27,953;3953
19:35:27,957;3687
19:35:27,961;4128
19:35:27,965;3910
19:35:27,969;4465
19:35:27,973;4226
19:35:27,977;3757
19:35:27,980;3498
19:35:27,984;3928
19:35:27,988;3672
19:35:27,992;3992
19:35:27,996;4088
19:35:28,000;4056
19:35:28,004;3829
19:35:28,008;4033
19:35:28,012;3537
19:35:28,016;4194
19:35:28,020;4012
19:35:28,023;3746
19:35:28,027;3768
19:35:28,031;4013
19:35:28,035;3959
19:35:28,039;3841
19:35:28,043;3465
19:35:28,047;4157
19:35:28,051;3952
19:35:28,055;3684
19:35:28,059;3901
19:35:28,062;4105
19:35:28,066;3941
19:35:28,070;4101
19:35:28,074;3576
19:35:28,078;3843
19:35:28,082;3940
19:35:28,086;3858
19:35:28,090;4403
19:35:28,094;4020
19:35:28,098;4020
19:35:28,102;4292
19:35:28,105;3513
19:35:28,109;3977
19:35:28,113;4293
19:35:28,117;3798
19:35:28,121;4725
19:35:28,125;3922
19:35:28,129;4005
19:35:28,133;4408
19:35:28,137;3622
19:35:28,141;4666
19:35:28,145;4409
19:35:28,148;4300
19:35:28,152;4161
19:35:28,156;4076
19:35:28,160;4331
19:35:28,164;3637
19:35:28,168;3779
19:35:28,172;4044
19:35:28,176;4005
19:35:28,180;4035
19:35:28,184;3952
19:35:28,187;3892
19:35:28,191;4558
19:35:28,195;3981
19:35:28,199;4005
19:35:28,203;4235
19:35:28,207;3966
19:35:28,211;4515
19:35:28,215;4098
19:35:28,219;3974
19:35:28,223;4325
19:35:28,227;4016
19:35:28,230;4000
19:35:28,234;4318
19:35:28,238;3821
19:35:28,242;4696
19:35:28,246;3955
19:35:28,250;4614
19:35:28,254;3938
19:35:28,258;3884
19:35:28,262;4019
19:35:28,266;3777
19:35:28,270;3930
19:35:28,273;4189
19:35:28,277;3840
19:35:28,281;4292
19:35:28,285;3953
19:35:28,289;3834
19:35:28,293;3875
19:35:28,297;3649
19:35:28,301;4293
19:35:28,305;3988
19:35:28,309;3770
19:35:28,312;4605
19:35:28,316;3741
19:35:28,320;4526
19:35:28,324;3549
19:35:28,328;4148
19:35:28,332;4253
19:35:28,336;3888
19:35:28,340;4320
19:35:28,344;3978
19:35:28,348;4133
19:35:28,352;4169
19:35:28,355;4004
19:35:28,359;4122
19:35:28,363;4160
19:35:28,367;3630
19:35:28,371;4242
19:35:28,375;3941
19:35:28,379;3886
19:35:28,383;3750
19:35:28,387;3314
19:35:28,391;4184
19:35:28,395;3401
19:35:28,398;3731
19:35:28,402;3892
19:35:28,406;3939
19:35:28,410;3862
19:35:28,414;3464
19:35:28,418;3765
19:35:28,422;3764
19:35:28,426;3455
19:35:28,430;4073
19:35:28,434;3724
19:35:28,437;3727
19:35:28,441;4042
19:35:28,445;3772
19:35:28,449;3505
19:35:28,453;3909
19:35:28,457;3402
19:35:28,461;4757
19:35:28,465;4826
19:35:28,469;5648
19:35:28,473;5592
19:35:28,477;4343
19:35:28,480;5113
19:35:28,484;4044
19:35:28,488;3537
19:35:28,492;3800
19:35:28,496;4066
19:35:28,500;4341
19:35:28,504;3619
19:35:28,508;3743
19:35:28,512;3338
19:35:28,516;3918
19:35:28,520;3843
19:35:28,523;3093
19:35:28,527;3597
19:35:28,531;4036
19:35:28,535;3849
19:35:28,539;3744
19:35:28,543;3644
19:35:28,547;3700
19:35:28,551;3943
19:35:28,555;3337
19:35:28,559;3696
19:35:28,562;4159
19:35:28,566;3719
19:35:28,570;3964
19:35:28,574;3493
19:35:28,578;3669
19:35:28,582;4160
19:35:28,586;3490
19:35:28,590;4450
19:35:28,594;4395
19:35:28,598;3587
19:35:28,602;4384
19:35:28,605;3589
19:35:28,609;3929
19:35:28,613;4011
19:35:28,617;3562
19:35:28,621;4090
19:35:28,625;3942
19:35:28,629;3880
19:35:28,633;3828
19:35:28,637;3763
19:35:28,641;4388
19:35:28,645;3833
19:35:28,648;3570
19:35:28,652;4140
19:35:28,656;3552
19:35:28,660;3820
19:35:28,664;3835
19:35:28,668;3418
19:35:28,672;4334
19:35:28,676;3702
19:35:28,680;4081
19:35:28,684;3903
19:35:28,688;3626
19:35:28,691;3735
19:35:28,695;3781
19:35:28,699;3733
19:35:28,703;3914
19:35:28,707;3723
19:35:28,711;3899
19:35:28,715;4144
19:35:28,719;3579
19:35:28,723;4001
19:35:28,727;4201
19:35:28,730;3660
19:35:28,734;4308
19:35:28,738;3557
19:35:28,742;3729
19:35:28,746;4064
19:35:28,750;3760
19:35:28,754;3429
19:35:28,758;3678
19:35:28,762;3136
19:35:28,766;3328
19:35:28,770;3786
19:35:28,773;3135
19:35:28,777;3524
19:35:28,781;3511
19:35:28,785;3356
19:35:28,789;3166
19:35:28,793;3076
19:35:28,797;3626
19:35:28,801;3612
19:35:28,805;3480
19:35:28,809;3813
19:35:28,812;3397
19:35:28,816;3742
19:35:28,820;3300
19:35:28,824;2974
19:35:28,828;3516
19:35:28,832;3272
19:35:28,836;3373
19:35:28,840;3551
19:35:28,844;3169
19:35:28,848;3288
19:35:28,852;3279
19:35:28,855;3103
19:35:28,859;3487
19:35:28,863;3054
19:35:28,867;3523
19:35:28,871;3741
19:35:28,875;3464
19:35:28,879;3646
19:35:28,883;3165
19:35:28,887;3058
19:35:28,891;3446
19:35:28,895;2955
19:35:28,898;3420
19:35:28,902;3820
19:35:28,906;3280
19:35:28,910;3589
19:35:28,914;3129
19:35:28,918;3042
19:35:28,922;3582
19:35:28,926;3162
19:35:28,930;3295
19:35:28,934;3075
19:35:28,938;3474
19:35:28,941;3086
19:35:28,945;3007
19:35:28,949;2845
19:35:28,953;3221
19:35:28,957;3221
19:35:28,961;3435
19:35:28,965;3349
19:35:28,969;3600
19:35:28,973;3659
19:35:28,977;3136
19:35:28,980;2747
19:35:28,984;3046
19:35:28,988;3313
19:35:28,992;3155
19:35:28,996;3034
19:35:29,000;3130
19:35:29,004;3201
19:35:29,008;3125
19:35:29,012;2771
19:35:29,016;3010
19:35:29,020;2960
19:35:29,023;2757
19:35:29,027;3019
19:35:29,031;3025
19:35:29,035;3285
19:35:29,039;2972
19:35:29,043;2608
19:35:29,047;2984
19:35:29,051;3131
19:35:29,055;2875
19:35:29,059;3114
19:35:29,062;3117
19:35:29,066;2660
19:35:29,070;2918
19:35:29,074;2153
19:35:29,078;3223
19:35:29,082;2829
19:35:29,086;2852
19:35:29,090;3100
19:35:29,094;2829
19:35:29,098;3283
19:35:29,102;3064
19:35:29,105;2704
19:35:29,109;2920
19:35:29,113;3271
19:35:29,117;2913
19:35:29,121;2814
19:35:29,125;3094
19:35:29,129;3353
19:35:29,133;2749
19:35:29,137;2949
19:35:29,141;3088
19:35:29,145;2877
19:35:29,148;2956
19:35:29,152;2415
19:35:29,156;3213
19:35:29,160;2145
19:35:29,164;2548
19:35:29,168;2377
19:35:29,172;2725
19:35:29,176;2181
19:35:29,180;2633
19:35:29,184;2670
19:35:29,188;2739
19:35:29,191;2484
19:35:29,195;3235
19:35:29,199;2204
19:35:29,203;3015
19:35:29,207;2608
19:35:29,211;2604
19:35:29,215;2673
19:35:29,219;2878
19:35:29,223;2509
19:35:29,227;3166
19:35:29,230;2234
19:35:29,234;2595
19:35:29,238;3022
19:35:29,242;2704
19:35:29,246;2762
19:35:29,250;2928
19:35:29,254;2589
19:35:29,258;3057
19:35:29,262;1868
19:35:29,266;3084
19:35:29,270;2812
19:35:29,273;2688
19:35:29,277;3083
19:35:29,281;2810
19:35:29,285;2924
19:35:29,289;3065
19:35:29,293;2065
19:35:29,297;2933
19:35:29,301;3085
19:35:29,305;2456
19:35:29,309;3435
19:35:29,312;3021
19:35:29,316;2934
19:35:29,320;2968
19:35:29,324;2347
19:35:29,328;3406
19:35:29,332;3031
19:35:29,336;2914
19:35:29,340;3469
19:35:29,344;2777
19:35:29,348;3273
19:35:29,352;2457
19:35:29,355;2786
19:35:29,359;2778
19:35:29,363;3125
19:35:29,367;2621
19:35:29,371;2902
19:35:29,375;2874
19:35:29,379;3013
19:35:29,383;2731
19:35:29,387;2150
19:35:29,391;3138
19:35:29,395;2358
19:35:29,398;2747
19:35:29,402;2885
19:35:29,406;2387
19:35:29,410;3218
19:35:29,414;2626
19:35:29,418;2236
19:35:29,422;3038
19:35:29,426;2448
19:35:29,430;2935
19:35:29,434;2605
19:35:29,437;2988
19:35:29,441;2893
19:35:29,445;2644
19:35:29,449;2196
19:35:29,453;3088
19:35:29,457;2713
19:35:29,461;2318
19:35:29,465;2456
19:35:29,469;2831
19:35:29,473;2890
19:35:29,477;2986
19:35:29,480;2839
19:35:29,484;4033
19:35:29,488;4447
19:35:29,492;4418
19:35:29,496;3659
19:35:29,500;4636
19:35:29,504;3963
19:35:29,508;3404
19:35:29,512;1969
19:35:29,516;2837
19:35:29,520;2510
19:35:29,523;2362
19:35:29,527;2204
19:35:29,531;2783
19:35:29,535;2687
19:35:29,539;2357
19:35:29,543;2217
19:35:29,547;2694
19:35:29,551;2216
19:35:29,555;2960
19:35:29,559;2255
19:35:29,562;2747
19:35:29,566;2700
19:35:29,570;2541
19:35:29,574;2157
19:35:29,578;2847
19:35:29,582;2583
19:35:29,586;2644
19:35:29,590;2850
19:35:29,594;2567
19:35:29,598;2971
19:35:29,602;2326
19:35:29,605;2427
19:35:29,609;2901
19:35:29,613;2705
19:35:29,617;3054
19:35:29,621;2729
19:35:29,625;2378
19:35:29,629;2667
19:35:29,633;2434
19:35:29,637;2405
19:35:29,641;2480
19:35:29,645;2715
19:35:29,648;3211
19:35:29,652;2329
19:35:29,656;3033
19:35:29,660;3018
19:35:29,664;2402
19:35:29,668;2748
19:35:29,672;2478
19:35:29,676;2751
19:35:29,680;3037
19:35:29,684;2562
19:35:29,687;3354
19:35:29,691;2560
19:35:29,695;2711
19:35:29,699;2026
19:35:29,703;2493
19:35:29,707;2860
19:35:29,711;2921
19:35:29,715;2752
19:35:29,719;3167
19:35:29,723;3176
19:35:29,727;2637
19:35:29,730;2333
19:35:29,734;3001
19:35:29,738;2788
19:35:29,742;3032
19:35:29,746;2659
19:35:29,750;3459
19:35:29,754;2820
19:35:29,758;2846
19:35:29,762;2269
19:35:29,766;2649
19:35:29,770;2794
19:35:29,773;2303
19:35:29,777;2737
19:35:29,781;2400
19:35:29,785;2586
19:35:29,789;2444
19:35:29,793;1777
19:35:29,797;2464
19:35:29,801;1963
19:35:29,805;2165
19:35:29,809;1999
19:35:29,812;2139
19:35:29,816;2065
19:35:29,820;1800
19:35:29,824;1411
19:35:29,828;2152
19:35:29,832;1575
19:35:29,836;2043
19:35:29,840;1617
19:35:29,844;1817
19:35:29,848;1490
19:35:29,852;1446
19:35:29,855;1210
19:35:29,859;1590
19:35:29,863;1225
19:35:29,867;1227
19:35:29,871;1821
19:35:29,875;1638
19:35:29,879;1224
19:35:29,883;1972
19:35:29,887;1082
19:35:29,891;1548
19:35:29,895;1367
19:35:29,898;1626
19:35:29,902;1489
19:35:29,906;1529
19:35:29,910;1225
19:35:29,914;1728
19:35:29,918;777
19:35:29,922;1969
19:35:29,926;1393
19:35:29,930;1584
19:35:29,934;1119
19:35:29,937;1537
19:35:29,941;1174
19:35:29,945;1357
19:35:29,949;1229
19:35:29,953;995
19:35:29,957;1690
19:35:29,961;1295
19:35:29,965;1188
19:35:29,969;1633
19:35:29,973;1385
19:35:29,977;1732
19:35:29,980;755
19:35:29,984;1220
19:35:29,988;1600
19:35:29,992;995
19:35:29,996;1476
19:35:30,000;1201
19:35:30,004;1408
19:35:30,008;1551
19:35:30,012;872
19:35:30,016;1353
19:35:30,020;1083
19:35:30,023;982
19:35:30,027;879
19:35:30,031;1180
19:35:30,035;949
19:35:30,039;1156
19:35:30,043;620
19:35:30,047;1433
19:35:30,051;1437
19:35:30,055;940
19:35:30,059;1602
19:35:30,062;1347
19:35:30,066;1062
19:35:30,070;1217
19:35:30,074;781
19:35:30,078;1803
19:35:30,082;911
19:35:30,086;1645
19:35:30,090;1660
19:35:30,094;929
19:35:30,098;1900
19:35:30,102;1208
19:35:30,105;989
19:35:30,109;1878
19:35:30,113;1190
19:35:30,117;1596
19:35:30,121;1794
19:35:30,125;1302
19:35:30,129;1445
19:35:30,133;1282
19:35:30,137;823
19:35:30,141;1505
19:35:30,145;1448
19:35:30,148;1337
19:35:30,152;1200
19:35:30,156;1800
19:35:30,160;1196
19:35:30,164;1210
19:35:30,168;1445
19:35:30,172;1441
19:35:30,176;1441
19:35:30,180;1509
19:35:30,184;1905
19:35:30,187;1897
19:35:30,191;1879
19:35:30,195;1913
19:35:30,199;1010
19:35:30,203;1624
19:35:30,207;1310
19:35:30,211;1552
19:35:30,215;1761
19:35:30,219;1758
19:35:30,223;1601
19:35:30,227;1239
19:35:30,230;1286
19:35:30,234;1353
19:35:30,238;1525
19:35:30,242;1701
19:35:30,246;1534
19:35:30,250;1726
19:35:30,254;1270
19:35:30,258;1541
19:35:30,262;813
19:35:30,266;1705
19:35:30,270;1109
19:35:30,273;1505
19:35:30,277;1734
19:35:30,281;1283
19:35:30,285;1396
19:35:30,289;1167
19:35:30,293;918
19:35:30,297;1180
19:35:30,301;1353
19:35:30,305;1455
19:35:30,309;1812
19:35:30,312;2476
19:35:30,316;2871
19:35:30,320;3192
19:35:30,324;2889
19:35:30,328;3743
19:35:30,332;3078
19:35:30,336;2931
19:35:30,340;1970
19:35:30,344;2104
19:35:30,348;1453
19:35:30,352;735
19:35:30,355;672
19:35:30,359;1070
19:35:30,363;1375
19:35:30,367;1570
19:35:30,371;1257
19:35:30,375;1733
19:35:30,379;1485
19:35:30,383;1041
19:35:30,387;650
19:35:30,391;1501
19:35:30,395;1034
19:35:30,398;1319
19:35:30,402;1019
19:35:30,406;1626
19:35:30,410;1215
19:35:30,414;918
19:35:30,418;875
19:35:30,422;1214
19:35:30,426;1302
19:35:30,430;1462
19:35:30,434;1289
19:35:30,438;1523
19:35:30,441;1076
19:35:30,445;1448
19:35:30,449;1054
19:35:30,453;1573
19:35:30,457;1670
19:35:30,461;1710
19:35:30,465;1764
19:35:30,469;1803
19:35:30,473;1741
19:35:30,477;1934
19:35:30,480;1435
19:35:30,484;1555
19:35:30,488;1844
19:35:30,492;1436
19:35:30,496;1724
19:35:30,500;1786
19:35:30,504;1474
19:35:30,508;1548
19:35:30,512;1069
19:35:30,516;1905
19:35:30,520;1498
19:35:30,523;1167
19:35:30,527;1727
19:35:30,531;1421
19:35:30,535;1534
19:35:30,539;1756
19:35:30,543;1349
19:35:30,547;2219
19:35:30,551;1425
19:35:30,555;1526
19:35:30,559;1376
19:35:30,562;1793
19:35:30,566;1884
19:35:30,570;1714
19:35:30,574;1416
19:35:30,578;1950
19:35:30,582;1795
19:35:30,586;1554
19:35:30,590;2451
19:35:30,594;1697
19:35:30,598;1906
19:35:30,602;1679
19:35:30,605;987
19:35:30,609;1927
19:35:30,613;1521
19:35:30,617;1675
19:35:30,621;1383
19:35:30,625;1329
19:35:30,629;1489
19:35:30,633;1219
19:35:30,637;605
19:35:30,641;1574
19:35:30,645;1215
19:35:30,648;1313
19:35:30,652;1108
19:35:30,656;1633
19:35:30,660;1271
19:35:30,664;1242
19:35:30,668;559
19:35:30,672;1469
19:35:30,676;798
19:35:30,680;873
19:35:30,684;994
19:35:30,688;1169
19:35:30,691;490
19:35:30,695;1415
19:35:30,699;220
19:35:30,703;1117
19:35:30,707;883
19:35:30,711;473
19:35:30,715;1250
19:35:30,719;1160
19:35:30,723;1229
19:35:30,727;1038
19:35:30,730;947
19:35:30,734;1310
19:35:30,738;785
19:35:30,742;879
19:35:30,746;984
19:35:30,750;1041
19:35:30,754;829
19:35:30,758;825
19:35:30,762;561
19:35:30,766;1321
19:35:30,770;1081
19:35:30,773;750
19:35:30,777;1056
19:35:30,781;858
19:35:30,785;739
19:35:30,789;803
19:35:30,793;134
19:35:30,797;1152
19:35:30,801;836
19:35:30,805;926
19:35:30,809;1090
19:35:30,812;676
19:35:30,816;1402
19:35:30,820;627
19:35:30,824;280
19:35:30,828;1542
19:35:30,832;768
19:35:30,836;909
19:35:30,840;807
19:35:30,844;836
19:35:30,848;1330
19:35:30,852;582
19:35:30,855;895
19:35:30,859;1100
19:35:30,863;953
19:35:30,867;1247
19:35:30,871;860
19:35:30,875;1405
19:35:30,879;1545
19:35:30,883;1251
19:35:30,887;719
19:35:30,891;1325
19:35:30,895;1432
19:35:30,898;1209
19:35:30,902;1557
19:35:30,906;1633
19:35:30,910;1504
19:35:30,914;1225
19:35:30,918;777
19:35:30,922;1622
19:35:30,926;1006
19:35:30,930;1515
19:35:30,934;1060
19:35:30,938;1294
19:35:30,941;1189
19:35:30,945;686
19:35:30,949;999
19:35:30,953;1139
19:35:30,957;1236
19:35:30,961;1469
19:35:30,965;1109
19:35:30,969;1833
19:35:30,973;945
19:35:30,977;1244
19:35:30,980;902
19:35:30,984;1415
19:35:30,988;1482
19:35:30,992;1151
19:35:30,996;1536
19:35:31,000;1194
19:35:31,004;1219
19:35:31,008;1148
19:35:31,012;971
19:35:31,016;1891
19:35:31,020;1649
19:35:31,023;2464
19:35:31,027;2836
19:35:31,031;3374
19:35:31,035;3709
19:35:31,039;3052
19:35:31,043;2718
19:35:31,047;2381
19:35:31,051;1469
19:35:31,055;1503
19:35:31,059;946
19:35:31,062;1009
19:35:31,066;1202
19:35:31,070;1536
19:35:31,074;707
19:35:31,078;1251
19:35:31,082;994
19:35:31,086;729
19:35:31,090;861
19:35:31,094;1395
19:35:31,098;821
19:35:31,102;1397
19:35:31,105;820
19:35:31,109;1186
19:35:31,113;1024
19:35:31,117;847
19:35:31,121;967
19:35:31,125;1008
19:35:31,129;1316
19:35:31,133;1235
19:35:31,137;904
19:35:31,141;1419
19:35:31,145;968
19:35:31,148;1361
19:35:31,152;487
19:35:31,156;1359
19:35:31,160;1110
19:35:31,164;919
19:35:31,168;637
19:35:31,172;982
19:35:31,176;1071
19:35:31,180;750
19:35:31,184;1219
19:35:31,187;1254
19:35:31,191;816
19:35:31,195;1435
19:35:31,199;147
19:35:31,203;1195
19:35:31,207;1268
19:35:31,211;989
19:35:31,215;1287
19:35:31,219;1249
19:35:31,223;1333
19:35:31,227;1221
19:35:31,230;881
19:35:31,234;1540
19:35:31,238;1412
19:35:31,242;1479
19:35:31,246;1337
19:35:31,250;1271
19:35:31,254;1165
19:35:31,258;1286
19:35:31,262;594
19:35:31,266;1090
19:35:31,270;1490
19:35:31,273;1297
19:35:31,277;1919
19:35:31,281;1284
19:35:31,285;1998
19:35:31,289;1864
19:35:31,293;1088
19:35:31,297;2003
19:35:31,301;1931
19:35:31,305;1349
19:35:31,309;1940
19:35:31,312;1101
19:35:31,316;1512
19:35:31,320;1201
19:35:31,324;389
19:35:31,328;1488
19:35:31,332;820
19:35:31,336;1262
19:35:31,340;1193
19:35:31,344;1061
19:35:31,348;1487
19:35:31,352;705
19:35:31,355;635
19:35:31,359;951
19:35:31,363;1017
19:35:31,367;1178
19:35:31,371;1122
19:35:31,375;1114
19:35:31,379;1200
19:35:31,383;850
19:35:31,387;625
19:35:31,391;1051
19:35:31,395;968
19:35:31,398;712
19:35:31,402;981
19:35:31,406;602
19:35:31,410;804
19:35:31,414;688
19:35:31,418;583
19:35:31,422;1048
19:35:31,426;734
19:35:31,430;974
19:35:31,434;846
19:35:31,437;926
19:35:31,441;710
19:35:31,445;797
19:35:31,449;96
19:35:31,453;1095
19:35:31,457;733
19:35:31,461;759
19:35:31,465;979
19:35:31,469;1287
19:35:31,473;957
19:35:31,477;944
19:35:31,480;509
19:35:31,484;1048
19:35:31,488;738
19:35:31,492;732
19:35:31,496;618
19:35:31,500;805
19:35:31,504;594
19:35:31,508;770
19:35:31,512;-1
19:35:31,516;971
19:35:31,520;470
19:35:31,523;814
19:35:31,527;896
19:35:31,531;565
19:35:31,535;1213
19:35:31,539;435
19:35:31,543;344
19:35:31,547;631
19:35:31,551;725
19:35:31,555;746
19:35:31,559;762
19:35:31,562;1115
19:35:31,566;1118
19:35:31,570;668
19:35:31,574;346
19:35:31,578;816
19:35:31,582;713
19:35:31,586;561
19:35:31,590;645
19:35:31,594;630
19:35:31,598;705
19:35:31,602;392
19:35:31,605;430
19:35:31,609;787
19:35:31,613;785
19:35:31,617;703
19:35:31,621;772
19:35:31,625;723
19:35:31,629;1015
19:35:31,633;598
19:35:31,637;767
19:35:31,641;488
19:35:31,645;412
19:35:31,648;1017
19:35:31,652;308
19:35:31,656;1034
19:35:31,660;1246
19:35:31,664;681
19:35:31,668;953
19:35:31,672;405
19:35:31,676;1193
19:35:31,680;925
19:35:31,684;541
19:35:31,687;1286
19:35:31,691;708
19:35:31,695;1173
19:35:31,699;235
19:35:31,703;962
19:35:31,707;1490
19:35:31,711;1272
19:35:31,715;1948
19:35:31,719;2503
19:35:31,723;2865
19:35:31,727;2935
19:35:31,730;2475
19:35:31,734;2880
19:35:31,738;2190
19:35:31,742;1414
19:35:31,746;1359
19:35:31,750;794
19:35:31,754;871
19:35:31,758;560
19:35:31,762;391
19:35:31,766;840
19:35:31,770;928
19:35:31,773;601
19:35:31,777;796
19:35:31,781;846
19:35:31,785;472
19:35:31,789;1164
19:35:31,793;-41
19:35:31,797;1104
19:35:31,801;747
19:35:31,805;658
19:35:31,809;1287
19:35:31,812;599
19:35:31,816;937
19:35:31,820;830
19:35:31,824;246
19:35:31,828;1534
19:35:31,832;665
19:35:31,836;1228
19:35:31,840;1021
19:35:31,844;1014
19:35:31,848;1055
19:35:31,852;1099
19:35:31,855;788
19:35:31,859;1343
19:35:31,863;1120
19:35:31,867;1000
19:35:31,871;963
19:35:31,875;1161
19:35:31,879;932
19:35:31,883;902
19:35:31,887;557
19:35:31,891;1142
19:35:31,895;842
19:35:31,898;713
19:35:31,902;1161
19:35:31,906;1158
19:35:31,910;603
19:35:31,914;1386
19:35:31,918;531
19:35:31,922;1190
19:35:31,926;1285
19:35:31,930;1212
19:35:31,934;1031
19:35:31,938;1372
19:35:31,941;1049
19:35:31,945;878
19:35:31,949;594
19:35:31,953;1180
19:35:31,957;1074
19:35:31,961;1417
19:35:31,965;1089
19:35:31,969;1744
19:35:31,973;1116
19:35:31,977;1160
19:35:31,980;677
19:35:31,984;1032
19:35:31,988;1143
19:35:31,992;678
19:35:31,996;1499
19:35:32,000;772
19:35:32,004;1334
19:35:32,008;1207
19:35:32,012;355
19:35:32,016;1341
19:35:32,020;528
19:35:32,023;921
19:35:32,027;760
19:35:32,031;660
19:35:32,035;961
19:35:32,039;345
19:35:32,043;320
19:35:32,047;930
19:35:32,051;260
19:35:32,055;1007
19:35:32,059;878
19:35:32,062;684
19:35:32,066;1057
19:35:32,070;702
19:35:32,074;286
19:35:32,078;1062
19:35:32,082;559
19:35:32,086;648
19:35:32,090;731
19:35:32,094;633
19:35:32,098;958
19:35:32,102;510
19:35:32,105;303
19:35:32,109;602
19:35:32,113;197
19:35:32,117;676
19:35:32,121;623
19:35:32,125;472
19:35:32,129;889
19:35:32,133;547
19:35:32,137;224
19:35:32,141;833
19:35:32,145;517
19:35:32,148;834
19:35:32,152;887
19:35:32,156;914
19:35:32,160;627
19:35:32,164;874
19:35:32,168;714
19:35:32,172;809
19:35:32,176;597
19:35:32,180;684
19:35:32,184;947
19:35:32,188;1066
19:35:32,191;537
19:35:32,195;1044
19:35:32,199;473
19:35:32,203;669
19:35:32,207;600
19:35:32,211;764
19:35:32,215;665
19:35:32,219;847
19:35:32,223;858
19:35:32,227;564
19:35:32,230;171
19:35:32,234;917
19:35:32,238;253
19:35:32,242;946
19:35:32,246;500
19:35:32,250;887
19:35:32,254;918
19:35:32,258;774
19:35:32,262;657
19:35:32,266;995
19:35:32,270;1013
19:35:32,273;1191
19:35:32,277;866
19:35:32,281;1062
19:35:32,285;1144
19:35:32,289;689
19:35:32,293;524
19:35:32,297;892
19:35:32,301;561
19:35:32,305;839
19:35:32,309;864
19:35:32,312;1275
19:35:32,316;927
19:35:32,320;1178
19:35:32,324;497
19:35:32,328;1031
19:35:32,332;245
19:35:32,336;724
19:35:32,340;881
19:35:32,344;817
19:35:32,348;1056
19:35:32,352;782
19:35:32,355;692
19:35:32,359;773
19:35:32,363;1009
19:35:32,367;974
19:35:32,371;718
19:35:32,375;1402
19:35:32,379;719
19:35:32,383;1053
19:35:32,387;864
19:35:32,391;1072
19:35:32,395;1138
19:35:32,398;1039
19:35:32,402;1267
19:35:32,406;1291
19:35:32,410;1377
19:35:32,414;1060
19:35:32,418;878
19:35:32,422;1251
19:35:32,426;1053
19:35:32,430;1144
19:35:32,434;1284
19:35:32,438;1581
19:35:32,441;1343
19:35:32,445;1254
19:35:32,449;1016
19:35:32,453;1517
19:35:32,457;1390
19:35:32,461;1142
19:35:32,465;1445
19:35:32,469;1827
19:35:32,473;839
19:35:32,477;1454
19:35:32,480;923
19:35:32,484;1207
19:35:32,488;1345
19:35:32,492;969
19:35:32,496;1332
19:35:32,500;1386
19:35:32,504;1219
19:35:32,508;1278
19:35:32,512;995
19:35:32,516;1381
19:35:32,520;1128
19:35:32,523;1161
19:35:32,527;1529
19:35:32,531;1288
19:35:32,535;1497
19:35:32,539;1469
19:35:32,543;1187
19:35:32,547;1848
19:35:32,551;1421
19:35:32,555;1340
19:35:32,559;1432
19:35:32,562;1396
19:35:32,566;1615
19:35:32,570;1244
19:35:32,574;912
19:35:32,578;1553
19:35:32,582;1536
19:35:32,586;1674
19:35:32,590;2293
19:35:32,594;2814
19:35:32,598;3249
19:35:32,602;3721
19:35:32,605;3261
19:35:32,609;3880
19:35:32,613;3008
19:35:32,617;2405
19:35:32,621;1951
19:35:32,625;1599
19:35:32,629;1379
19:35:32,633;1216
19:35:32,637;1160
19:35:32,641;1362
19:35:32,645;1415
19:35:32,648;1273
19:35:32,652;1462
19:35:32,656;1176
19:35:32,660;1386
19:35:32,664;1288
19:35:32,668;772
19:35:32,672;1387
19:35:32,676;1340
19:35:32,680;1133
19:35:32,684;1127
19:35:32,687;1287
19:35:32,691;954
19:35:32,695;1194
19:35:32,699;952
19:35:32,703;1335
19:35:32,707;1643
19:35:32,711;1260
19:35:32,715;1574
19:35:32,719;1358
19:35:32,723;1812
19:35:32,727;1645
19:35:32,730;1359
19:35:32,734;2045
19:35:32,738;1557
19:35:32,742;1521
19:35:32,746;1936
19:35:32,750;1664
19:35:32,754;1610
19:35:32,758;1733
19:35:32,762;1290
19:35:32,766;1814
19:35:32,770;1385
19:35:32,773;1561
19:35:32,777;1830
19:35:32,781;1642
19:35:32,785;1982
19:35:32,789;1723
19:35:32,793;1560
19:35:32,797;1866
19:35:32,801;1744
19:35:32,805;1956
19:35:32,809;2237
19:35:32,812;1857
19:35:32,816;2234
19:35:32,820;1945
19:35:32,824;1858
19:35:32,828;2302
19:35:32,832;1858
19:35:32,836;2356
19:35:32,840;1998
19:35:32,844;2058
19:35:32,848;2310
19:35:32,852;1878
19:35:32,855;2190
19:35:32,859;2198
19:35:32,863;2290
19:35:32,867;2462
19:35:32,871;2210
19:35:32,875;2354
19:35:32,879;2393
19:35:32,883;2014
19:35:32,887;2047
19:35:32,891;1896
19:35:32,895;1807
19:35:32,898;1742
19:35:32,902;1964
19:35:32,906;1923
19:35:32,910;1592
19:35:32,914;1872
19:35:32,918;1490
19:35:32,922;1650
19:35:32,926;1490
19:35:32,930;1590
19:35:32,934;1722
19:35:32,937;1590
19:35:32,941;1750
19:35:32,945;1488
19:35:32,949;1465
19:35:32,953;1481
19:35:32,957;1452
19:35:32,961;1508
19:35:32,965;1472
19:35:32,969;1640
19:35:32,973;1379
19:35:32,977;1490
19:35:32,980;1060
19:35:32,984;1193
19:35:32,988;1623
19:35:32,992;1338
19:35:32,996;1458
19:35:33,000;1611
19:35:33,004;1357
19:35:33,008;1607
19:35:33,012;1039
19:35:33,016;1561
19:35:33,020;1413
19:35:33,023;1310
19:35:33,027;1489
19:35:33,031;1336
19:35:33,035;1283
19:35:33,039;1322
19:35:33,043;990
19:35:33,047;1381
19:35:33,051;1464
19:35:33,055;1436
19:35:33,059;1329
19:35:33,062;1397
19:35:33,066;1411
19:35:33,070;1304
19:35:33,074;1034
19:35:33,078;1448
19:35:33,082;1349
19:35:33,086;1256
19:35:33,090;1103
19:35:33,094;1607
19:35:33,098;1076
19:35:33,102;1510
19:35:33,105;1234
19:35:33,109;1222
19:35:33,113;1573
19:35:33,117;1289
19:35:33,121;1289
19:35:33,125;1644
19:35:33,129;1325
19:35:33,133;1373
19:35:33,137;1032
19:35:33,141;1435
19:35:33,145;1229
19:35:33,148;1397
19:35:33,152;1245
19:35:33,156;1417
19:35:33,160;1212
19:35:33,164;1422
19:35:33,168;1169
19:35:33,172;1183
19:35:33,176;1497
19:35:33,180;1298
19:35:33,184;1278
19:35:33,187;1657
19:35:33,191;1100
19:35:33,195;1454
19:35:33,199;1040
19:35:33,203;1213
19:35:33,207;1315
19:35:33,211;1235
19:35:33,215;1542
19:35:33,219;1239
19:35:33,223;1428
19:35:33,227;1389
19:35:33,230;925
19:35:33,234;1419
19:35:33,238;1241
19:35:33,242;1059
19:35:33,246;1320
19:35:33,250;1156
19:35:33,254;1227
19:35:33,258;1064
19:35:33,262;887
19:35:33,266;1242
19:35:33,270;1112
19:35:33,273;1142
19:35:33,277;1222
19:35:33,281;1275
19:35:33,285;1428
19:35:33,289;1340
19:35:33,293;886
19:35:33,297;1567
19:35:33,301;1300
19:35:33,305;1318
19:35:33,309;1275
19:35:33,312;1336
19:35:33,316;1193
19:35:33,320;1426
19:35:33,324;850
19:35:33,328;1591
19:35:33,332;1157
19:35:33,336;1286
19:35:33,340;1469
19:35:33,344;1268
19:35:33,348;1589
19:35:33,352;1116
19:35:33,355;1030
19:35:33,359;1387
19:35:33,363;1082
19:35:33,367;1287
19:35:33,371;1308
19:35:33,375;1322
19:35:33,379;1287
19:35:33,383;1124
19:35:33,387;787
19:35:33,391;1133
19:35:33,395;1064
19:35:33,398;1037
19:35:33,402;1250
19:35:33,406;1197
19:35:33,410;1358
19:35:33,414;1087
19:35:33,418;1026
19:35:33,422;1081
19:35:33,426;1047
19:35:33,430;1130
19:35:33,434;1219
19:35:33,438;977
19:35:33,441;1232
19:35:33,445;1120
19:35:33,449;701
19:35:33,453;1205
19:35:33,457;872
19:35:33,461;1023
19:35:33,465;884
19:35:33,469;1131
19:35:33,473;960
19:35:33,477;950
19:35:33,480;903
19:35:33,484;1016
19:35:33,488;916
19:35:33,492;1112
19:35:33,496;970
19:35:33,500;1165
19:35:33,504;1064
19:35:33,508;1163
19:35:33,512;603
19:35:33,516;1198
19:35:33,520;909
19:35:33,523;1125
19:35:33,527;1183
19:35:33,531;1055
19:35:33,535;1292
19:35:33,539;1072
19:35:33,543;861
19:35:33,547;1166
19:35:33,551;866
19:35:33,555;1153
19:35:33,559;962
19:35:33,562;1050
19:35:33,566;1434
19:35:33,570;1075
19:35:33,574;1165
19:35:33,578;1215
19:35:33,582;1155
19:35:33,586;1350
19:35:33,590;1166
19:35:33,594;1426
19:35:33,598;1188
19:35:33,602;1335
19:35:33,605;1160
19:35:33,609;1210
19:35:33,613;1327
19:35:33,617;1244
19:35:33,621;1123
19:35:33,625;1285
19:35:33,629;1314
19:35:33,633;1182
19:35:33,637;1073
19:35:33,641;1121
19:35:33,645;1100
19:35:33,648;1120
19:35:33,652;1063
19:35:33,656;1351
19:35:33,660;1423
19:35:33,664;1041
19:35:33,668;1227
19:35:33,672;1073
19:35:33,676;1320
19:35:33,680;1528
19:35:33,684;1999
19:35:33,688;2586
19:35:33,691;2943
19:35:33,695;3507
19:35:33,699;3413
19:35:33,703;3433
19:35:33,707;3237
19:35:33,711;2231
19:35:33,715;1687
19:35:33,719;1110
19:35:33,723;738
19:35:33,727;883
19:35:33,730;638
19:35:33,734;999
19:35:33,738;1103
19:35:33,742;894
19:35:33,746;998
19:35:33,750;826
19:35:33,754;938
19:35:33,758;855
19:35:33,762;704
19:35:33,766;961
19:35:33,770;837
19:35:33,773;875
19:35:33,777;722
19:35:33,781;796
19:35:33,785;579
19:35:33,789;713
19:35:33,793;467
19:35:33,797;666
19:35:33,801;822
19:35:33,805;662
19:35:33,809;868
19:35:33,812;847
19:35:33,816;860
19:35:33,820;942
19:35:33,824;698
19:35:33,828;987
19:35:33,832;723
19:35:33,836;808
19:35:33,840;755
19:35:33,844;758
19:35:33,848;795
19:35:33,852;843
19:35:33,855;585
19:35:33,859;742
19:35:33,863;747
19:35:33,867;663
19:35:33,871;790
19:35:33,875;1014
19:35:33,879;735
19:35:33,883;942
19:35:33,887;772
19:35:33,891;867
19:35:33,895;911
19:35:33,898;817
19:35:33,902;826
19:35:33,906;815
19:35:33,910;745
19:35:33,914;785
19:35:33,918;667
19:35:33,922;888
19:35:33,926;1024
19:35:33,930;691
19:35:33,934;822
19:35:33,938;934
19:35:33,941;904
19:35:33,945;959
19:35:33,949;895
19:35:33,953;1004
19:35:33,957;914
19:35:33,961;1022
19:35:33,965;1030
19:35:33,969;988
19:35:33,973;1070
19:35:33,977;1104
19:35:33,980;892
19:35:33,984;886
19:35:33,988;1088
19:35:33,992;637
19:35:33,996;1053
19:35:34,000;722
19:35:34,004;821
19:35:34,008;885
19:35:34,012;466
19:35:34,016;726
19:35:34,020;485
19:35:34,023;488
19:35:34,027;646
19:35:34,031;565
19:35:34,035;742
19:35:34,039;402
19:35:34,043;434
19:35:34,047;673
19:35:34,051;384
19:35:34,055;605
19:35:34,059;582
19:35:34,062;480
19:35:34,066;668
19:35:34,070;339
19:35:34,074;333
19:35:34,078;472
19:35:34,082;284
19:35:34,086;351
19:35:34,090;179
19:35:34,094;289
19:35:34,098;446
19:35:34,102;89
19:35:34,105;369
19:35:34,109;386
19:35:34,113;226
19:35:34,117;303
19:35:34,121;424
19:35:34,125;331
19:35:34,129;421
19:35:34,133;331
19:35:34,137;260
19:35:34,141;469
19:35:34,145;360
19:35:34,148;304
19:35:34,152;257
19:35:34,156;234
19:35:34,160;303
19:35:34,164;123
19:35:34,168;157
19:35:34,172;154
19:35:34,176;216
19:35:34,180;139
19:35:34,184;236
19:35:34,187;314
19:35:34,191;157
19:35:34,195;286
19:35:34,199;55
19:35:34,203;120
19:35:34,207;109
19:35:34,211;42
19:35:34,215;109
19:35:34,219;-59
19:35:34,223;5
19:35:34,227;-106
19:35:34,230;-252
19:35:34,234;-29
19:35:34,238;-206
19:35:34,242;34
19:35:34,246;-65
19:35:34,250;112
19:35:34,254;-1
19:35:34,258;-10
19:35:34,262;-210
19:35:34,266;-54
19:35:34,270;-169
19:35:34,273;-85
19:35:34,277;-196
19:35:34,281;53
19:35:34,285;-46
19:35:34,289;-80
19:35:34,293;-52
19:35:34,297;-102
19:35:34,301;51
19:35:34,305;-103
19:35:34,309;16
19:35:34,312;133
19:35:34,316;-89
19:35:34,320;-71
19:35:34,324;-246
19:35:34,328;12
19:35:34,332;-328
19:35:34,336;-172
19:35:34,340;-70
19:35:34,344;-47
19:35:34,348;-101
19:35:34,352;-270
19:35:34,355;-266
19:35:34,359;-238
19:35:34,363;-240
19:35:34,367;-111
19:35:34,371;-316
19:35:34,375;-110
19:35:34,379;-249
19:35:34,383;-265
19:35:34,387;-395
19:35:34,391;-317
19:35:34,395;-72
19:35:34,398;-382
19:35:34,402;-295
19:35:34,406;-84
19:35:34,410;-213
19:35:34,414;-150
19:35:34,418;-172
19:35:34,422;-286
19:35:34,426;-225
19:35:34,430;-157
19:35:34,434;-93
19:35:34,437;-74
19:35:34,441;-132
19:35:34,445;61
19:35:34,449;-334
19:35:34,453;-74
19:35:34,457;-106
19:35:34,461;-301
19:35:34,465;60
19:35:34,469;-197
19:35:34,473;-147
19:35:34,477;-14
19:35:34,480;-97
19:35:34,484;-120
19:35:34,488;-22
19:35:34,492;-225
19:35:34,496;-55
19:35:34,500;-54
19:35:34,504;-90
19:35:34,508;68
19:35:34,512;-242
19:35:34,516;-82
19:35:34,520;-78
19:35:34,523;-297
19:35:34,527;-65
19:35:34,531;-173
19:35:34,535;-44
19:35:34,539;-102
19:35:34,543;-199
19:35:34,547;119
19:35:34,551;-237
19:35:34,555;-154
19:35:34,559;-117
19:35:34,562;-87
19:35:34,566;49
19:35:34,570;-67
19:35:34,574;-136
19:35:34,578;-117
19:35:34,582;-146
19:35:34,586;-144
19:35:34,590;-171
19:35:34,594;24
19:35:34,598;-12
19:35:34,602;-32
19:35:34,605;-98
19:35:34,609;-18
19:35:34,613;85
19:35:34,617;-88
19:35:34,621;-113
19:35:34,625;-99
19:35:34,629;37
19:35:34,633;-76
19:35:34,637;-201
19:35:34,641;-59
19:35:34,645;-168
19:35:34,648;-93
19:35:34,652;-164
19:35:34,656;-217
19:35:34,660;-28
19:35:34,664;-298
19:35:34,668;-408
19:35:34,672;-241
19:35:34,676;-314
19:35:34,680;-162
19:35:34,684;-257
19:35:34,687;-196
19:35:34,691;-433
19:35:34,695;-323
19:35:34,699;-571
19:35:34,703;-366
19:35:34,707;-245
19:35:34,711;-426
19:35:34,715;-323
19:35:34,719;-464
19:35:34,723;-379
19:35:34,727;-403
19:35:34,730;-487
19:35:34,734;100
19:35:34,738;352
19:35:34,742;828
19:35:34,746;1582
19:35:34,750;1659
19:35:34,754;2098
19:35:34,758;1679
19:35:34,762;1396
19:35:34,766;760
19:35:34,770;123
19:35:34,773;-271
19:35:34,777;-730
19:35:34,781;-499
19:35:34,785;-554
19:35:34,789;-474
19:35:34,793;-530
19:35:34,797;-458
19:35:34,801;-614
19:35:34,805;-604
19:35:34,809;-580
19:35:34,812;-605
19:35:34,816;-481
19:35:34,820;-640
19:35:34,824;-719
19:35:34,828;-618
19:35:34,832;-577
19:35:34,836;-563
19:35:34,840;-735
19:35:34,844;-491
19:35:34,848;-566
19:35:34,852;-652
19:35:34,855;-522
19:35:34,859;-619
19:35:34,863;-487
19:35:34,867;-483
19:35:34,871;-670
19:35:34,875;-373
19:35:34,879;-473
19:35:34,883;-526
19:35:34,887;-505
19:35:34,891;-452
19:35:34,895;-339
19:35:34,898;-559
19:35:34,902;-375
19:35:34,906;-316
19:35:34,910;-566
19:35:34,914;-405
19:35:34,918;-614
19:35:34,922;-362
19:35:34,926;-376
19:35:34,930;-468
19:35:34,934;-282
19:35:34,937;-466
19:35:34,941;-290
19:35:34,945;-359
19:35:34,949;-595
19:35:34,953;-335
19:35:34,957;-345
19:35:34,961;-341
19:35:34,965;-423
19:35:34,969;-289
19:35:34,973;-328
19:35:34,977;-404
19:35:34,980;-428
19:35:34,984;-282
19:35:34,988;-273
19:35:34,992;-225
19:35:34,996;-153
19:35:35,000;-283
19:35:35,004;-302
19:35:35,008;20
19:35:35,012;-348
19:35:35,016;-128
19:35:35,020;-3
19:35:35,023;-88
19:35:35,027;-82
19:35:35,031;-128
19:35:35,035;-93
19:35:35,039;-129
19:35:35,043;-334
19:35:35,047;-336
19:35:35,051;-206
19:35:35,055;-503
19:35:35,059;-487
19:35:35,062;-491
19:35:35,066;-492
19:35:35,070;-507
19:35:35,074;-623
19:35:35,078;-592
19:35:35,082;-636
19:35:35,086;-732
19:35:35,090;-797
19:35:35,094;-722
19:35:35,098;-765
19:35:35,102;-759
19:35:35,105;-895
19:35:35,109;-888
19:35:35,113;-782
19:35:35,117;-890
19:35:35,121;-713
19:35:35,125;-662
19:35:35,129;-841
19:35:35,133;-591
19:35:35,137;-914
19:35:35,141;-681
19:35:35,145;-828
19:35:35,148;-822
19:35:35,152;-786
19:35:35,156;-913
19:35:35,160;-835
19:35:35,164;-793
19:35:35,168;-802
19:35:35,172;-751
19:35:35,176;-747
19:35:35,180;-730
19:35:35,184;-773
19:35:35,188;-680
19:35:35,191;-814
19:35:35,195;-743
19:35:35,199;-990
19:35:35,203;-705
19:35:35,207;-687
19:35:35,211;-938
19:35:35,215;-524
19:35:35,219;-736
19:35:35,223;-728
19:35:35,227;-750
19:35:35,230;-930
19:35:35,234;-678
19:35:35,238;-719
19:35:35,242;-839
19:35:35,246;-629
19:35:35,250;-830
19:35:35,254;-853
19:35:35,258;-952
19:35:35,262;-1085
19:35:35,266;-844
19:35:35,270;-1020
19:35:35,273;-869
19:35:35,277;-846
19:35:35,281;-954
19:35:35,285;-832
19:35:35,289;-944
19:35:35,293;-1077
19:35:35,297;-806
19:35:35,301;-844
19:35:35,305;-957
19:35:35,309;-790
19:35:35,312;-938
19:35:35,316;-975
19:35:35,320;-886
19:35:35,324;-1028
19:35:35,328;-894
19:35:35,332;-891
19:35:35,336;-868
19:35:35,340;-978
19:35:35,344;-963
19:35:35,348;-837
19:35:35,352;-1001
19:35:35,355;-1036
19:35:35,359;-900
19:35:35,363;-962
19:35:35,367;-813
19:35:35,371;-1020
19:35:35,375;-872
19:35:35,379;-892
19:35:35,383;-961
19:35:35,387;-998
19:35:35,391;-968
19:35:35,395;-847
19:35:35,398;-1005
19:35:35,402;-1005
19:35:35,406;-755
19:35:35,410;-1057
19:35:35,414;-874
19:35:35,418;-1125
19:35:35,422;-1026
19:35:35,426;-957
19:35:35,430;-996
19:35:35,434;-990
19:35:35,438;-1000
19:35:35,441;-958
19:35:35,445;-973
19:35:35,449;-1336
19:35:35,453;-884
19:35:35,457;-1124
19:35:35,461;-975
19:35:35,465;-1025
19:35:35,469;-1045
19:35:35,473;-887
19:35:35,477;-1129
19:35:35,480;-1060
19:35:35,484;-982
19:35:35,488;-1076
19:35:35,492;-931
19:35:35,496;-1018
19:35:35,500;-979
19:35:35,504;-985
19:35:35,508;-996
19:35:35,512;-1183
19:35:35,516;-1044
19:35:35,520;-1110
19:35:35,523;-1048
19:35:35,527;-1087
19:35:35,531;-1099
19:35:35,535;-1023
19:35:35,539;-1198
19:35:35,543;-1278
19:35:35,547;-1046
19:35:35,551;-1249
19:35:35,555;-1116
19:35:35,559;-1171
19:35:35,562;-1246
19:35:35,566;-1085
19:35:35,570;-1388
19:35:35,574;-1295
19:35:35,578;-1227
19:35:35,582;-1203
19:35:35,586;-1125
19:35:35,590;-1227
19:35:35,594;-904
19:35:35,598;-1089
19:35:35,602;-996
19:35:35,605;-1110
19:35:35,609;-1048
19:35:35,613;-1000
19:35:35,617;-1162
19:35:35,621;-1069
19:35:35,625;-957
19:35:35,629;-987
19:35:35,633;-901
19:35:35,637;-968
19:35:35,641;-957
19:35:35,645;-792
19:35:35,648;-907
19:35:35,652;-923
19:35:35,656;-732
19:35:35,660;-938
19:35:35,664;-898
19:35:35,668;-1023
19:35:35,672;-1016
19:35:35,676;-977
19:35:35,680;-1054
19:35:35,684;-860
19:35:35,688;-944
19:35:35,691;-883
19:35:35,695;-909
19:35:35,699;-1091
19:35:35,703;-1084
19:35:35,707;-915
19:35:35,711;-1214
19:35:35,715;-945
19:35:35,719;-916
19:35:35,723;-1059
19:35:35,727;-906
19:35:35,730;-1176
19:35:35,734;-1060
19:35:35,738;-1000
19:35:35,742;-1118
19:35:35,746;-1016
19:35:35,750;-1046
19:35:35,754;-1053
19:35:35,758;-1053
19:35:35,762;-1247
19:35:35,766;-1047
19:35:35,770;-989
19:35:35,773;-816
19:35:35,777;-571
19:35:35,781;-87
19:35:35,785;293
19:35:35,789;751
19:35:35,793;999
19:35:35,797;1197
19:35:35,801;1124
19:35:35,805;657
19:35:35,809;-117
19:35:35,812;-673
19:35:35,816;-1174
19:35:35,820;-1233
19:35:35,824;-1423
19:35:35,828;-1061
19:35:35,832;-1007
19:35:35,836;-1058
19:35:35,840;-1107
19:35:35,844;-1174
19:35:35,848;-1141
19:35:35,852;-1130
19:35:35,855;-1265
19:35:35,859;-1056
19:35:35,863;-1156
19:35:35,867;-1216
19:35:35,871;-1056
19:35:35,875;-1134
19:35:35,879;-1251
19:35:35,883;-1152
19:35:35,887;-1300
19:35:35,891;-1163
19:35:35,895;-1120
19:35:35,898;-1092
19:35:35,902;-1076
19:35:35,906;-1076
19:35:35,910;-1234
19:35:35,914;-1015
19:35:35,918;-1358
19:35:35,922;-1137
19:35:35,926;-1077
19:35:35,930;-1170
19:35:35,934;-1058
19:35:35,937;-1162
19:35:35,941;-1034
19:35:35,945;-1053
19:35:35,949;-1297
19:35:35,953;-969
19:35:35,957;-1107
19:35:35,961;-1100
19:35:35,965;-961
19:35:35,969;-1091
19:35:35,973;-977
19:35:35,977;-1113
19:35:35,980;-1158
19:35:35,984;-979
19:35:35,988;-1051
19:35:35,992;-1051
19:35:35,996;-880
19:35:36,000;-984
19:35:36,004;-901
19:35:36,008;-872
19:35:36,012;-1082
19:35:36,016;-858
19:35:36,020;-914
19:35:36,023;-888
19:35:36,027;-801
19:35:36,031;-817
19:35:36,035;-694
19:35:36,039;-820
19:35:36,043;-910
19:35:36,047;-581
19:35:36,051;-789
19:35:36,055;-610
19:35:36,059;-612
19:35:36,062;-691
19:35:36,066;-582
19:35:36,070;-723
19:35:36,074;-774
19:35:36,078;-635
19:35:36,082;-841
19:35:36,086;-764
19:35:36,090;-931
19:35:36,094;-869
19:35:36,098;-923
19:35:36,102;-1078
19:35:36,105;-1098
19:35:36,109;-1056
19:35:36,113;-1134
19:35:36,117;-1222
19:35:36,121;-1169
19:35:36,125;-1127
19:35:36,129;-1318
19:35:36,133;-1177
19:35:36,137;-1420
19:35:36,141;-1136
19:35:36,145;-1316
19:35:36,148;-1315
19:35:36,152;-1210
19:35:36,156;-1382
19:35:36,160;-1287
19:35:36,164;-1219
19:35:36,168;-1443
19:35:36,172;-1213
19:35:36,176;-1343
19:35:36,180;-1222
19:35:36,184;-1275
19:35:36,187;-1185
19:35:36,191;-1287
19:35:36,195;-1288
19:35:36,199;-1404
19:35:36,203;-1402
19:35:36,207;-1293
19:35:36,211;-1284
19:35:36,215;-1307
19:35:36,219;-1292
19:35:36,223;-1310
19:35:36,227;-1224
19:35:36,230;-1453
19:35:36,234;-1238
19:35:36,238;-1234
19:35:36,242;-1350
19:35:36,246;-1337
19:35:36,250;-1255
19:35:36,254;-1317
19:35:36,258;-1326
19:35:36,262;-1415
19:35:36,266;-1326
19:35:36,270;-1540
19:35:36,273;-1234
19:35:36,277;-1416
19:35:36,281;-1316
19:35:36,285;-1281
19:35:36,289;-1240
19:35:36,293;-1479
19:35:36,297;-1418
19:35:36,301;-1442
19:35:36,305;-1390
19:35:36,309;-1526
19:35:36,312;-1360
19:35:36,316;-1463
19:35:36,320;-1374
19:35:36,324;-1491
19:35:36,328;-1476
19:35:36,332;-1406
19:35:36,336;-1442
19:35:36,340;-1507
19:35:36,344;-1421
19:35:36,348;-1409
19:35:36,352;-1483
19:35:36,355;-1541
19:35:36,359;-1512
19:35:36,363;-1525
19:35:36,367;-1516
19:35:36,371;-1548
19:35:36,375;-1533
19:35:36,379;-1474
19:35:36,383;-1488
19:35:36,387;-1550
19:35:36,391;-1559
19:35:36,395;-1362
19:35:36,398;-1546
19:35:36,402;-1404
19:35:36,406;-1464
19:35:36,410;-1440
19:35:36,414;-1478
19:35:36,418;-1592
19:35:36,422;-1508
19:35:36,426;-1405
19:35:36,430;-1608
19:35:36,434;-1411
19:35:36,437;-1515
19:35:36,441;-1458
19:35:36,445;-1382
19:35:36,449;-1617
19:35:36,453;-1324
19:35:36,457;-1360
19:35:36,461;-1607
19:35:36,465;-1309
19:35:36,469;-1575
19:35:36,473;-1379
19:35:36,477;-1470
19:35:36,480;-1522
19:35:36,484;-1377
19:35:36,488;-1462
19:35:36,492;-1448
19:35:36,496;-1395
19:35:36,500;-1361
19:35:36,504;-1443
19:35:36,508;-1341
19:35:36,512;-1490
19:35:36,516;-1401
19:35:36,520;-1421
19:35:36,523;-1429
19:35:36,527;-1391
19:35:36,531;-1411
19:35:36,535;-1407
19:35:36,539;-1362
19:35:36,543;-1622
19:35:36,547;-1364
19:35:36,551;-1458
19:35:36,555;-1540
19:35:36,559;-1475
19:35:36,562;-1423
19:35:36,566;-1452
19:35:36,570;-1486
19:35:36,574;-1620
19:35:36,578;-1502
19:35:36,582;-1478
19:35:36,586;-1421
19:35:36,590;-1492
19:35:36,594;-1401
19:35:36,598;-1446
19:35:36,602;-1517
19:35:36,605;-1617
19:35:36,609;-1526
19:35:36,613;-1486
19:35:36,617;-1562
19:35:36,621;-1444
19:35:36,625;-1443
19:35:36,629;-1449
19:35:36,633;-1379
19:35:36,637;-1460
19:35:36,641;-1373
19:35:36,645;-1443
19:35:36,648;-1352
19:35:36,652;-1311
19:35:36,656;-1347
19:35:36,660;-1290
19:35:36,664;-1288
19:35:36,668;-1523
19:35:36,672;-1217
19:35:36,676;-1338
19:35:36,680;-1424
19:35:36,684;-1306
19:35:36,688;-1286
19:35:36,691;-1377
19:35:36,695;-1449
19:35:36,699;-1417
19:35:36,703;-1420
19:35:36,707;-1406
19:35:36,711;-1443
19:35:36,715;-1433
19:35:36,719;-1509
19:35:36,723;-1482
19:35:36,727;-1528
19:35:36,730;-1656
19:35:36,734;-1487
19:35:36,738;-1546
19:35:36,742;-1516
19:35:36,746;-1461
19:35:36,750;-1544
19:35:36,754;-1443
19:35:36,758;-1488
19:35:36,762;-1565
19:35:36,766;-1350
19:35:36,770;-1587
19:35:36,773;-1392
19:35:36,777;-1505
19:35:36,781;-1324
19:35:36,785;-1063
19:35:36,789;-906
19:35:36,793;-509
19:35:36,797;282
19:35:36,801;608
19:35:36,805;964
19:35:36,809;993
19:35:36,812;932
19:35:36,816;287
19:35:36,820;-521
19:35:36,824;-1284
19:35:36,828;-1403
19:35:36,832;-1736
19:35:36,836;-1528
19:35:36,840;-1450
19:35:36,844;-1115
19:35:36,848;-1209
19:35:36,852;-1336
19:35:36,855;-1434
19:35:36,859;-1422
19:35:36,863;-1421
19:35:36,867;-1413
19:35:36,871;-1341
19:35:36,875;-1331
19:35:36,879;-1333
19:35:36,883;-1382
19:35:36,887;-1425
19:35:36,891;-1400
19:35:36,895;-1343
19:35:36,898;-1398
19:35:36,902;-1344
19:35:36,906;-1295
19:35:36,910;-1397
19:35:36,914;-1438
19:35:36,918;-1580
19:35:36,922;-1430
19:35:36,926;-1489
19:35:36,930;-1606
19:35:36,934;-1465
19:35:36,938;-1600
19:35:36,941;-1498
19:35:36,945;-1577
19:35:36,949;-1723
19:35:36,953;-1541
19:35:36,957;-1670
19:35:36,961;-1677
19:35:36,965;-1637
19:35:36,969;-1640
19:35:36,973;-1753
19:35:36,977;-1827
19:35:36,980;-1858
19:35:36,984;-1805
19:35:36,988;-1925
19:35:36,992;-1899
19:35:36,996;-1925
19:35:37,000;-1972
19:35:37,004;-1996
19:35:37,008;-1914
19:35:37,012;-2087
19:35:37,016;-2026
19:35:37,020;-1993
19:35:37,023;-2068
19:35:37,027;-2102
19:35:37,031;-2010
19:35:37,035;-2107
19:35:37,039;-2086
19:35:37,043;-2196
19:35:37,047;-2064
19:35:37,051;-2054
19:35:37,055;-2045
19:35:37,059;-2011
19:35:37,062;-2035
19:35:37,066;-2086
19:35:37,070;-2083
19:35:37,074;-2183
19:35:37,078;-2070
19:35:37,082;-2193
19:35:37,086;-2078
19:35:37,090;-2298
19:35:37,094;-2194
19:35:37,098;-2363
19:35:37,102;-2353
19:35:37,105;-2482
19:35:37,109;-2601
19:35:37,113;-2553
19:35:37,117;-2712
19:35:37,121;-2700
19:35:37,125;-2733
19:35:37,129;-2910
19:35:37,133;-2981
19:35:37,137;-3345
19:35:37,141;-3366
19:35:37,145;-3416
19:35:37,148;-3598
19:35:37,152;-3661
19:35:37,156;-3713
19:35:37,160;-3850
19:35:37,164;-3824
19:35:37,168;-4042
19:35:37,172;-3939
19:35:37,176;-4020
19:35:37,180;-4038
19:35:37,184;-4043
19:35:37,188;-4093
19:35:37,191;-4137
19:35:37,195;-4236
19:35:37,199;-4369
19:35:37,203;-4209
19:35:37,207;-4355
19:35:37,211;-4299
19:35:37,215;-4208
19:35:37,219;-4376
19:35:37,223;-4298
19:35:37,227;-4372
19:35:37,230;-4521
19:35:37,234;-4254
19:35:37,238;-4492
19:35:37,242;-4322
19:35:37,246;-4299
19:35:37,250;-4454
19:35:37,254;-4376
19:35:37,258;-4520
19:35:37,262;-4467
19:35:37,266;-4434
19:35:37,270;-4522
19:35:37,273;-4417
19:35:37,277;-4405
19:35:37,281;-4540
19:35:37,285;-4356
19:35:37,289;-4523
19:35:37,293;-4556
19:35:37,297;-4420
19:35:37,301;-4483
19:35:37,305;-4527
19:35:37,309;-4535
19:35:37,312;-4481
19:35:37,316;-4524
19:35:37,320;-4618
19:35:37,324;-4580
19:35:37,328;-4520
19:35:37,332;-4598
19:35:37,336;-4581
19:35:37,340;-4558
19:35:37,344;-4600
19:35:37,348;-4580
19:35:37,352;-4634
19:35:37,355;-4663
19:35:37,359;-4575
19:35:37,363;-4643
19:35:37,367;-4623
19:35:37,371;-4577
19:35:37,375;-4492
19:35:37,379;-4556
19:35:37,383;-4585
19:35:37,387;-4528
19:35:37,391;-4519
19:35:37,395;-4516
19:35:37,398;-4492
19:35:37,402;-4515
19:35:37,406;-4456
19:35:37,410;-4554
19:35:37,414;-4618
19:35:37,418;-4668
19:35:37,422;-4598
19:35:37,426;-4610
19:35:37,430;-4624
19:35:37,434;-4581
19:35:37,437;-4606
19:35:37,441;-4657
19:35:37,445;-4691
19:35:37,449;-4783
19:35:37,453;-4660
19:35:37,457;-4703
19:35:37,461;-4611
19:35:37,465;-4551
19:35:37,469;-4573
19:35:37,473;-4574
19:35:37,477;-4587
19:35:37,480;-4651
19:35:37,484;-4522
19:35:37,488;-4655
19:35:37,492;-4561
19:35:37,496;-4531
19:35:37,500;-4498
19:35:37,504;-4538
19:35:37,508;-4530
19:35:37,512;-4583
19:35:37,516;-4606
19:35:37,520;-4596
19:35:37,523;-4587
19:35:37,527;-4539
19:35:37,531;-4511
19:35:37,535;-4506
19:35:37,539;-4526
19:35:37,543;-4595
19:35:37,547;-4479
19:35:37,551;-4586
19:35:37,555;-4522
19:35:37,559;-4471
19:35:37,562;-4539
19:35:37,566;-4517
19:35:37,570;-4594
19:35:37,574;-4522
19:35:37,578;-4573
19:35:37,582;-4495
19:35:37,586;-4392
19:35:37,590;-4513
19:35:37,594;-4401
19:35:37,598;-4498
19:35:37,602;-4412
19:35:37,605;-4482
19:35:37,609;-4382
19:35:37,613;-4371
19:35:37,617;-4365
19:35:37,621;-4350
19:35:37,625;-4339
19:35:37,629;-4352
19:35:37,633;-4316
19:35:37,637;-4416
19:35:37,641;-4391
19:35:37,645;-4333
19:35:37,648;-4414
19:35:37,652;-4357
19:35:37,656;-4346
19:35:37,660;-4483
19:35:37,664;-4311
19:35:37,668;-4529
19:35:37,672;-4493
19:35:37,676;-4398
19:35:37,680;-4491
19:35:37,684;-4396
19:35:37,687;-4432
19:35:37,691;-4397
19:35:37,695;-4463
19:35:37,699;-4444
19:35:37,703;-4431
19:35:37,707;-4484
19:35:37,711;-4446
19:35:37,715;-4472
19:35:37,719;-4413
19:35:37,723;-4503
19:35:37,727;-4435
19:35:37,730;-4516
19:35:37,734;-4313
19:35:37,738;-4170
19:35:37,742;-3737
19:35:37,746;-3357
19:35:37,750;-2698
19:35:37,754;-2315
19:35:37,758;-1950
19:35:37,762;-2064
19:35:37,766;-2018
19:35:37,770;-2797
19:35:37,773;-3386
19:35:37,777;-4167
19:35:37,781;-4371
19:35:37,785;-4558
19:35:37,789;-4462
19:35:37,793;-4435
19:35:37,797;-4096
19:35:37,801;-4174
19:35:37,805;-4325
19:35:37,809;-4380
19:35:37,812;-4307
19:35:37,816;-4379
19:35:37,820;-4327
19:35:37,824;-4429
19:35:37,828;-4237
19:35:37,832;-4346
19:35:37,836;-4339
19:35:37,840;-4212
19:35:37,844;-4309
19:35:37,848;-4284
19:35:37,852;-4200
19:35:37,855;-4372
19:35:37,859;-4173
19:35:37,863;-4198
19:35:37,867;-4291
19:35:37,871;-4111
19:35:37,875;-4142
19:35:37,879;-4164
19:35:37,883;-4102
19:35:37,887;-4217
19:35:37,891;-4085
19:35:37,895;-4193
19:35:37,898;-4094
19:35:37,902;-4108
19:35:37,906;-4046
19:35:37,910;-4129
19:35:37,914;-4054
19:35:37,918;-4140
19:35:37,922;-3995
19:35:37,926;-4014
19:35:37,930;-4065
19:35:37,934;-4021
19:35:37,937;-4068
19:35:37,941;-4089
19:35:37,945;-3986
19:35:37,949;-4188
19:35:37,953;-3975
19:35:37,957;-4038
19:35:37,961;-4045
19:35:37,965;-4024
19:35:37,969;-4005
19:35:37,973;-3963
19:35:37,977;-3975
19:35:37,980;-3978
19:35:37,984;-3898
19:35:37,988;-3940
19:35:37,992;-3805
19:35:37,996;-3888
19:35:38,000;-3796
19:35:38,004;-3769
19:35:38,008;-3841
19:35:38,012;-3878
19:35:38,016;-3780
19:35:38,020;-3810
19:35:38,023;-3722
19:35:38,027;-3761
19:35:38,031;-3669
19:35:38,035;-3768
19:35:38,039;-3818
19:35:38,043;-3932
19:35:38,047;-3836
19:35:38,051;-3904
19:35:38,055;-3908
19:35:38,059;-3935
19:35:38,062;-3985
19:35:38,066;-4075
19:35:38,070;-4151
19:35:38,074;-4242
19:35:38,078;-4159
19:35:38,082;-4228
19:35:38,086;-4167
19:35:38,090;-4275
19:35:38,094;-4240
19:35:38,098;-4238
19:35:38,102;-4308
19:35:38,105;-4262
19:35:38,109;-4334
19:35:38,113;-4273
19:35:38,117;-4269
19:35:38,121;-4362
19:35:38,125;-4216
19:35:38,129;-4342
19:35:38,133;-4281
19:35:38,137;-4360
19:35:38,141;-4282
19:35:38,145;-4267
19:35:38,148;-4316
19:35:38,152;-4242
19:35:38,156;-4308
19:35:38,160;-4309
19:35:38,164;-4230
19:35:38,168;-4353
19:35:38,172;-4225
19:35:38,176;-4234
19:35:38,180;-4263
19:35:38,184;-4208
19:35:38,187;-4271
19:35:38,191;-4254
19:35:38,195;-4286
19:35:38,199;-4324
19:35:38,203;-4234
19:35:38,207;-4275
19:35:38,211;-4269
19:35:38,215;-4244
19:35:38,219;-4227
19:35:38,223;-4355
19:35:38,227;-4208
19:35:38,230;-4338
19:35:38,234;-4275
19:35:38,238;-4297
19:35:38,242;-4307
19:35:38,246;-4360
19:35:38,250;-4280
19:35:38,254;-4301
19:35:38,258;-4339
19:35:38,262;-4373
19:35:38,266;-4296
19:35:38,270;-4428
19:35:38,273;-4348
19:35:38,277;-4352
19:35:38,281;-4308
19:35:38,285;-4281
19:35:38,289;-4285
19:35:38,293;-4388
19:35:38,297;-4337
19:35:38,301;-4321
19:35:38,305;-4341
19:35:38,309;-4369
19:35:38,312;-4261
19:35:38,316;-4322
19:35:38,320;-4342
19:35:38,324;-4369
19:35:38,328;-4309
19:35:38,332;-4204
19:35:38,336;-4276
19:35:38,340;-4252
19:35:38,344;-4218
19:35:38,348;-4236
19:35:38,352;-4242
19:35:38,355;-4376
19:35:38,359;-4215
19:35:38,363;-4300
19:35:38,367;-4330
19:35:38,371;-4380
19:35:38,375;-4388
19:35:38,379;-4370
19:35:38,383;-4362
19:35:38,387;-4485
19:35:38,391;-4381
19:35:38,395;-4436
19:35:38,398;-4534
19:35:38,402;-4491
19:35:38,406;-4554
19:35:38,410;-4564
19:35:38,414;-4552
19:35:38,418;-4663
19:35:38,422;-4576
19:35:38,426;-4610
19:35:38,430;-4632
19:35:38,434;-4563
19:35:38,438;-4691
19:35:38,441;-4678
19:35:38,445;-4667
19:35:38,449;-4728
19:35:38,453;-4625
19:35:38,457;-4613
19:35:38,461;-4665
19:35:38,465;-4560
19:35:38,469;-4720
19:35:38,473;-4755
19:35:38,477;-4715
19:35:38,480;-4729
19:35:38,484;-4449
19:35:38,488;-4224
19:35:38,492;-3637
19:35:38,496;-3086
19:35:38,500;-2536
19:35:38,504;-2270
19:35:38,508;-2222
19:35:38,512;-2368
19:35:38,516;-2854
19:35:38,520;-3554
19:35:38,523;-4449
19:35:38,527;-4717
19:35:38,531;-4962
19:35:38,535;-5122
19:35:38,539;-4930
19:35:38,543;-4882
19:35:38,547;-4713
19:35:38,551;-4807
19:35:38,555;-4887
19:35:38,559;-4881
19:35:38,562;-4777
19:35:38,566;-4781
19:35:38,570;-4864
19:35:38,574;-4989
19:35:38,578;-4808
19:35:38,582;-4907
19:35:38,586;-4795
19:35:38,590;-4889
19:35:38,594;-4879
19:35:38,598;-4849
19:35:38,602;-4945
19:35:38,605;-4940
19:35:38,609;-4852
19:35:38,613;-4908
19:35:38,617;-4867
19:35:38,621;-4813
19:35:38,625;-4865
19:35:38,629;-4845
19:35:38,633;-4851
19:35:38,637;-4911
19:35:38,641;-4795
19:35:38,645;-4822
19:35:38,648;-4780
19:35:38,652;-4708
19:35:38,656;-4797
19:35:38,660;-4808
19:35:38,664;-4773
19:35:38,668;-4910
19:35:38,672;-4762
19:35:38,676;-4842
19:35:38,680;-4778
19:35:38,684;-4762
19:35:38,688;-4819
19:35:38,691;-4717
19:35:38,695;-4752
19:35:38,699;-4776
19:35:38,703;-4600
19:35:38,707;-4667
19:35:38,711;-4631
19:35:38,715;-4647
19:35:38,719;-4622
19:35:38,723;-4543
19:35:38,727;-4609
19:35:38,730;-4555
19:35:38,734;-4460
19:35:38,738;-4502
19:35:38,742;-4452
19:35:38,746;-4437
19:35:38,750;-4398
19:35:38,754;-4362
19:35:38,758;-4348
19:35:38,762;-4311
19:35:38,766;-4222
19:35:38,770;-4267
19:35:38,773;-4260
19:35:38,777;-4281
19:35:38,781;-4342
19:35:38,785;-4363
19:35:38,789;-4462
19:35:38,793;-4459
19:35:38,797;-4529
19:35:38,801;-4556
19:35:38,805;-4605
19:35:38,809;-4691
19:35:38,812;-4675
19:35:38,816;-4732
19:35:38,820;-4823
19:35:38,824;-4788
19:35:38,828;-4894
19:35:38,832;-4787
19:35:38,836;-4893
19:35:38,840;-4929
19:35:38,844;-4840
19:35:38,848;-4951
19:35:38,852;-4882
19:35:38,855;-5005
19:35:38,859;-4888
19:35:38,863;-4878
19:35:38,867;-4969
19:35:38,871;-4906
19:35:38,875;-4919
19:35:38,879;-4916
19:35:38,883;-4935
19:35:38,887;-4984
19:35:38,891;-4942
19:35:38,895;-4948
19:35:38,898;-4905
19:35:38,902;-4913
19:35:38,906;-4875
19:35:38,910;-4855
19:35:38,914;-4903
19:35:38,918;-4865
19:35:38,922;-4919
19:35:38,926;-4856
19:35:38,930;-4862
19:35:38,934;-4856
19:35:38,937;-4905
19:35:38,941;-4894
19:35:38,945;-4834
19:35:38,949;-4989
19:35:38,953;-4860
19:35:38,957;-4897
19:35:38,961;-4904
19:35:38,965;-4883
19:35:38,969;-4921
19:35:38,973;-4928
19:35:38,977;-4943
19:35:38,980;-5016
19:35:38,984;-4917
19:35:38,988;-4961
19:35:38,992;-4919
19:35:38,996;-4944
19:35:39,000;-4915
19:35:39,004;-4896
19:35:39,008;-4971
19:35:39,012;-4930
19:35:39,016;-4908
19:35:39,020;-4943
19:35:39,023;-4939
19:35:39,027;-4927
19:35:39,031;-4901
19:35:39,035;-4884
19:35:39,039;-4838
19:35:39,043;-4851
19:35:39,047;-4852
19:35:39,051;-4775
19:35:39,055;-4861
19:35:39,059;-4813
19:35:39,062;-4785
19:35:39,066;-4844
19:35:39,070;-4780
19:35:39,074;-4904
19:35:39,078;-4785
19:35:39,082;-4826
19:35:39,086;-4833
19:35:39,090;-4835
19:35:39,094;-4811
19:35:39,098;-4850
19:35:39,102;-4849
19:35:39,105;-4879
19:35:39,109;-4941
19:35:39,113;-4910
19:35:39,117;-4989
19:35:39,121;-4956
19:35:39,125;-4946
19:35:39,129;-5006
19:35:39,133;-4938
19:35:39,137;-5039
19:35:39,141;-4980
19:35:39,145;-4941
19:35:39,148;-5002
19:35:39,152;-4890
19:35:39,156;-4952
19:35:39,160;-4977
19:35:39,164;-4873
19:35:39,168;-5004
19:35:39,172;-4836
19:35:39,176;-4970
19:35:39,180;-4911
19:35:39,184;-4870
19:35:39,187;-4767
19:35:39,191;-4476
19:35:39,195;-4108
19:35:39,199;-3667
19:35:39,203;-2998
19:35:39,207;-2582
19:35:39,211;-2285
19:35:39,215;-2279
19:35:39,219;-2517
19:35:39,223;-3037
19:35:39,227;-3912
19:35:39,230;-4619
19:35:39,234;-4798
19:35:39,238;-5014
19:35:39,242;-4942
19:35:39,246;-4777
19:35:39,250;-4644
19:35:39,254;-4683
19:35:39,258;-4852
19:35:39,262;-4854
19:35:39,266;-4794
19:35:39,270;-4857
19:35:39,273;-4728
19:35:39,277;-4725
19:35:39,281;-4813
19:35:39,285;-4725
19:35:39,289;-4788
19:35:39,293;-4759
19:35:39,297;-4723
19:35:39,301;-4779
19:35:39,305;-4727
19:35:39,309;-4713
19:35:39,312;-4709
19:35:39,316;-4680
19:35:39,320;-4723
19:35:39,324;-4705
19:35:39,328;-4664
19:35:39,332;-4703
19:35:39,336;-4628
19:35:39,340;-4681
19:35:39,344;-4607
19:35:39,348;-4613
19:35:39,352;-4625
19:35:39,355;-4705
19:35:39,359;-4609
19:35:39,363;-4683
19:35:39,367;-4611
19:35:39,371;-4606
19:35:39,375;-4593
19:35:39,379;-4540
19:35:39,383;-4569
19:35:39,387;-4533
19:35:39,391;-4446
19:35:39,395;-4507
19:35:39,398;-4454
19:35:39,402;-4441
19:35:39,406;-4372
19:35:39,410;-4373
19:35:39,414;-4419
19:35:39,418;-4385
19:35:39,422;-4282
19:35:39,426;-4341
19:35:39,430;-4229
19:35:39,434;-4246
19:35:39,437;-4143
19:35:39,441;-4180
19:35:39,445;-4166
19:35:39,449;-4160
19:35:39,453;-4060
19:35:39,457;-4048
19:35:39,461;-4043
19:35:39,465;-3994
19:35:39,469;-3947
19:35:39,473;-3995
19:35:39,477;-3944
19:35:39,480;-4056
19:35:39,484;-3976
19:35:39,488;-4107
19:35:39,492;-4110
19:35:39,496;-4147
19:35:39,500;-4172
19:35:39,504;-4261
19:35:39,508;-4386
19:35:39,512;-4327
19:35:39,516;-4405
19:35:39,520;-4411
19:35:39,523;-4414
19:35:39,527;-4431
19:35:39,531;-4419
19:35:39,535;-4454
19:35:39,539;-4506
19:35:39,543;-4469
19:35:39,547;-4522
19:35:39,551;-4489
19:35:39,555;-4593
19:35:39,559;-4494
19:35:39,562;-4492
19:35:39,566;-4591
19:35:39,570;-4552
19:35:39,574;-4629
19:35:39,578;-4578
19:35:39,582;-4607
19:35:39,586;-4592
19:35:39,590;-4572
19:35:39,594;-4524
19:35:39,598;-4631
19:35:39,602;-4579
19:35:39,605;-4621
19:35:39,609;-4629
19:35:39,613;-4553
19:35:39,617;-4599
19:35:39,621;-4561
19:35:39,625;-4489
19:35:39,629;-4570
19:35:39,633;-4477
19:35:39,637;-4551
19:35:39,641;-4493
19:35:39,645;-4472
19:35:39,648;-4542
19:35:39,652;-4486
19:35:39,656;-4531
19:35:39,660;-4573
19:35:39,664;-4489
19:35:39,668;-4621
19:35:39,672;-4509
19:35:39,676;-4554
19:35:39,680;-4576
19:35:39,684;-4525
19:35:39,687;-4559
19:35:39,691;-4507
19:35:39,695;-4572
19:35:39,699;-4567
19:35:39,703;-4488
19:35:39,707;-4599
19:35:39,711;-4557
19:35:39,715;-4528
19:35:39,719;-4492
19:35:39,723;-4514
19:35:39,727;-4518
19:35:39,730;-4558
19:35:39,734;-4517
19:35:39,738;-4559
19:35:39,742;-4553
19:35:39,746;-4479
19:35:39,750;-4504
19:35:39,754;-4495
19:35:39,758;-4524
19:35:39,762;-4575
19:35:39,766;-4492
19:35:39,770;-4560
19:35:39,773;-4516
19:35:39,777;-4485
19:35:39,781;-4533
19:35:39,785;-4517
19:35:39,789;-4510
19:35:39,793;-4530
19:35:39,797;-4525
19:35:39,801;-4531
19:35:39,805;-4546
19:35:39,809;-4541
19:35:39,812;-4522
19:35:39,816;-4474
19:35:39,820;-4517
19:35:39,824;-4511
19:35:39,828;-4401
19:35:39,832;-4416
19:35:39,836;-4443
19:35:39,840;-4341
19:35:39,844;-4323
19:35:39,848;-4447
19:35:39,852;-4372
19:35:39,855;-4443
19:35:39,859;-4341
19:35:39,863;-4349
19:35:39,867;-4390
19:35:39,871;-4319
19:35:39,875;-4387
19:35:39,879;-4380
19:35:39,883;-4352
19:35:39,887;-4495
19:35:39,891;-4291
19:35:39,895;-4425
19:35:39,898;-4463
19:35:39,902;-4373
19:35:39,906;-4495
19:35:39,910;-4486
19:35:39,914;-4490
19:35:39,918;-4555
19:35:39,922;-4435
19:35:39,926;-4517
19:35:39,930;-4503
19:35:39,934;-4463
19:35:39,938;-4489
19:35:39,941;-4494
19:35:39,945;-4463
19:35:39,949;-4528
19:35:39,953;-4475
19:35:39,957;-4474
19:35:39,961;-4485
19:35:39,965;-4435
19:35:39,969;-4481
19:35:39,973;-4398
19:35:39,977;-4507
19:35:39,980;-4379
19:35:39,984;-4124
19:35:39,988;-3916
19:35:39,992;-3358
19:35:39,996;-2678
19:35:40,000;-2256
19:35:40,004;-1768
19:35:40,008;-1739
19:35:40,012;-1881
19:35:40,016;-2517
19:35:40,020;-3298
19:35:40,023;-4078
19:35:40,027;-4420
19:35:40,031;-4517
19:35:40,035;-4548
19:35:40,039;-4379
19:35:40,043;-4264
19:35:40,047;-4301
19:35:40,051;-4291
19:35:40,055;-4449
19:35:40,059;-4362
19:35:40,062;-4358
19:35:40,066;-4359
19:35:40,070;-4376
19:35:40,074;-4466
19:35:40,078;-4377
19:35:40,082;-4315
19:35:40,086;-4316
19:35:40,090;-4352
19:35:40,094;-4360
19:35:40,098;-4344
19:35:40,102;-4360
19:35:40,105;-4364
19:35:40,109;-4319
19:35:40,113;-4305
19:35:40,117;-4306
19:35:40,121;-4337
19:35:40,125;-4236
19:35:40,129;-4294
19:35:40,133;-4309
19:35:40,137;-4330
19:35:40,141;-4296
19:35:40,145;-4246
19:35:40,148;-4327
19:35:40,152;-4237
19:35:40,156;-4244
19:35:40,160;-4290
19:35:40,164;-4239
19:35:40,168;-4299
19:35:40,172;-4195
19:35:40,176;-4261
19:35:40,180;-4214
19:35:40,184;-4208
19:35:40,188;-4184
19:35:40,191;-4146
19:35:40,195;-4157
19:35:40,199;-4162
19:35:40,203;-4096
19:35:40,207;-4053
19:35:40,211;-4123
19:35:40,215;-4066
19:35:40,219;-3956
19:35:40,223;-4034
19:35:40,227;-3922
19:35:40,230;-3917
19:35:40,234;-3921
19:35:40,238;-3878
19:35:40,242;-3833
19:35:40,246;-3858
19:35:40,250;-3770
19:35:40,254;-3738
19:35:40,258;-3701
19:35:40,262;-3737
19:35:40,266;-3710
19:35:40,270;-3622
19:35:40,273;-3671
19:35:40,277;-3672
19:35:40,281;-3683
19:35:40,285;-3756
19:35:40,289;-3764
19:35:40,293;-3942
19:35:40,297;-3831
19:35:40,301;-3893
19:35:40,305;-3932
19:35:40,309;-4076
19:35:40,312;-4003
19:35:40,316;-4121
19:35:40,320;-4106
19:35:40,324;-4150
19:35:40,328;-4176
19:35:40,332;-4131
19:35:40,336;-4209
19:35:40,340;-4263
19:35:40,344;-4164
19:35:40,348;-4280
19:35:40,352;-4169
19:35:40,355;-4351
19:35:40,359;-4279
19:35:40,363;-4270
19:35:40,367;-4304
19:35:40,371;-4224
19:35:40,375;-4274
19:35:40,379;-4221
19:35:40,383;-4240
19:35:40,387;-4299
19:35:40,391;-4245
19:35:40,395;-4234
19:35:40,398;-4281
19:35:40,402;-4231
19:35:40,406;-4195
19:35:40,410;-4260
19:35:40,414;-4189
19:35:40,418;-4303
19:35:40,422;-4227
19:35:40,426;-4229
19:35:40,430;-4276
19:35:40,434;-4161
19:35:40,438;-4207
19:35:40,441;-4173
19:35:40,445;-4164
19:35:40,449;-4270
19:35:40,453;-4150
19:35:40,457;-4177
19:35:40,461;-4166
19:35:40,465;-4124
19:35:40,469;-4195
19:35:40,473;-4151
19:35:40,477;-4152
19:35:40,480;-4284
19:35:40,484;-4127
19:35:40,488;-4246
19:35:40,492;-4210
19:35:40,496;-4154
19:35:40,500;-4261
19:35:40,504;-4159
19:35:40,508;-4179
19:35:40,512;-4277
19:35:40,516;-4155
19:35:40,520;-4199
19:35:40,523;-4177
19:35:40,527;-4203
19:35:40,531;-4200
19:35:40,535;-4245
19:35:40,539;-4214
19:35:40,543;-4304
19:35:40,547;-4231
19:35:40,551;-4228
19:35:40,555;-4215
19:35:40,559;-4234
19:35:40,562;-4200
19:35:40,566;-4185
19:35:40,570;-4247
19:35:40,574;-4299
19:35:40,578;-4209
19:35:40,582;-4277
19:35:40,586;-4227
19:35:40,590;-4148
19:35:40,594;-4212
19:35:40,598;-4170
19:35:40,602;-4223
19:35:40,605;-4273
19:35:40,609;-4173
19:35:40,613;-4230
19:35:40,617;-4242
19:35:40,621;-4255
19:35:40,625;-4245
19:35:40,629;-4257
19:35:40,633;-4248
19:35:40,637;-4294
19:35:40,641;-4191
19:35:40,645;-4228
19:35:40,648;-4195
19:35:40,652;-4213
19:35:40,656;-4225
19:35:40,660;-4167
19:35:40,664;-4258
19:35:40,668;-4339
19:35:40,672;-4239
19:35:40,676;-4280
19:35:40,680;-4229
19:35:40,684;-4232
19:35:40,687;-4271
19:35:40,691;-4201
19:35:40,695;-4250
19:35:40,699;-4255
19:35:40,703;-4195
19:35:40,707;-4228
19:35:40,711;-4190
19:35:40,715;-4254
19:35:40,719;-4193
19:35:40,723;-4192
19:35:40,727;-4243
19:35:40,730;-4205
19:35:40,734;-4202
19:35:40,738;-4242
19:35:40,742;-4191
19:35:40,746;-4232
19:35:40,750;-4147
19:35:40,754;-4218
19:35:40,758;-4183
19:35:40,762;-4237
19:35:40,766;-4156
19:35:40,770;-4174
19:35:40,773;-4236
19:35:40,777;-4206
19:35:40,781;-4176
19:35:40,785;-4212
19:35:40,789;-4199
19:35:40,793;-4224
19:35:40,797;-4180
19:35:40,801;-4171
19:35:40,805;-4188
19:35:40,809;-4171
19:35:40,812;-4086
19:35:40,816;-4083
19:35:40,820;-4142
19:35:40,824;-4114
19:35:40,828;-4109
19:35:40,832;-4094
19:35:40,836;-4129
19:35:40,840;-4095
19:35:40,844;-4063
19:35:40,848;-4115
19:35:40,852;-4071
19:35:40,855;-4155
19:35:40,859;-4133
19:35:40,863;-4066
19:35:40,867;-4159
19:35:40,871;-4099
19:35:40,875;-4102
19:35:40,879;-4080
19:35:40,883;-4107
19:35:40,887;-4152
19:35:40,891;-4086
19:35:40,895;-4146
19:35:40,898;-4068
19:35:40,902;-4097
19:35:40,906;-4091
19:35:40,910;-4093
19:35:40,914;-4097
19:35:40,918;-4159
19:35:40,922;-4094
19:35:40,926;-4116
19:35:40,930;-4091
19:35:40,934;-4067
19:35:40,937;-4064
19:35:40,941;-4112
19:35:40,945;-4053
19:35:40,949;-4123
19:35:40,953;-4020
19:35:40,957;-4041
19:35:40,961;-4032
19:35:40,965;-3928
19:35:40,969;-4010
19:35:40,973;-4000
19:35:40,977;-3975
19:35:40,980;-4001
19:35:40,984;-3918
19:35:40,988;-3975
19:35:40,992;-3987
19:35:40,996;-3944
19:35:41,000;-4032
19:35:41,004;-4002
19:35:41,008;-3980
19:35:41,012;-4041
19:35:41,016;-3996
19:35:41,020;-4004
19:35:41,023;-4033
19:35:41,027;-4050
19:35:41,031;-4079
19:35:41,035;-4054
19:35:41,039;-4126
19:35:41,043;-4169
19:35:41,047;-4091
19:35:41,051;-4061
19:35:41,055;-4118
19:35:41,059;-4063
19:35:41,062;-4061
19:35:41,066;-4118
19:35:41,070;-4076
19:35:41,074;-4143
19:35:41,078;-4053
19:35:41,082;-4070
19:35:41,086;-4119
19:35:41,090;-4083
19:35:41,094;-4059
19:35:41,098;-3944
19:35:41,102;-3738
19:35:41,105;-3524
19:35:41,109;-2880
19:35:41,113;-2238
19:35:41,117;-1756
19:35:41,121;-1480
19:35:41,125;-1373
19:35:41,129;-1570
19:35:41,133;-2381
19:35:41,137;-3159
19:35:41,141;-3724
19:35:41,145;-3960
19:35:41,148;-4136
19:35:41,152;-4083
19:35:41,156;-3949
19:35:41,160;-3874
19:35:41,164;-3949
19:35:41,168;-4131
19:35:41,172;-4063
19:35:41,176;-4107
19:35:41,180;-4057
19:35:41,184;-3971
19:35:41,187;-4093
19:35:41,191;-4028
19:35:41,195;-4075
19:35:41,199;-4135
19:35:41,203;-4009
19:35:41,207;-4130
19:35:41,211;-4015
19:35:41,215;-4016
19:35:41,219;-4054
19:35:41,223;-3968
19:35:41,227;-4064
19:35:41,230;-4077
19:35:41,234;-3976
19:35:41,238;-4043
19:35:41,242;-3994
19:35:41,246;-3944
19:35:41,250;-4002
19:35:41,254;-4005
19:35:41,258;-4055
19:35:41,262;-3997
19:35:41,266;-3955
19:35:41,270;-3946
19:35:41,273;-3958
19:35:41,277;-3918
19:35:41,281;-3914
19:35:41,285;-3903
19:35:41,289;-3956
19:35:41,293;-3928
19:35:41,297;-3872
19:35:41,301;-3888
19:35:41,305;-3860
19:35:41,309;-3893
19:35:41,312;-3792
19:35:41,316;-3802
19:35:41,320;-3847
19:35:41,324;-3803
19:35:41,328;-3783
19:35:41,332;-3729
19:35:41,336;-3749
19:35:41,340;-3732
19:35:41,344;-3655
19:35:41,348;-3658
19:35:41,352;-3638
19:35:41,355;-3661
19:35:41,359;-3556
19:35:41,363;-3537
19:35:41,367;-3517
19:35:41,371;-3427
19:35:41,375;-3482
19:35:41,379;-3356
19:35:41,383;-3431
19:35:41,387;-3449
19:35:41,391;-3373
19:35:41,395;-3382
19:35:41,398;-3346
19:35:41,402;-3338
19:35:41,406;-3371
19:35:41,410;-3377
19:35:41,414;-3456
19:35:41,418;-3527
19:35:41,422;-3509
19:35:41,426;-3635
19:35:41,430;-3567
19:35:41,434;-3698
19:35:41,438;-3704
19:35:41,441;-3729
19:35:41,445;-3775
19:35:41,449;-3797
19:35:41,453;-3845
19:35:41,457;-3811
19:35:41,461;-3853
19:35:41,465;-3883
19:35:41,469;-3836
19:35:41,473;-3888
19:35:41,477;-3870
19:35:41,480;-3932
19:35:41,484;-3860
19:35:41,488;-3971
19:35:41,492;-3916
19:35:41,496;-3926
19:35:41,500;-3887
19:35:41,504;-3908
19:35:41,508;-3924
19:35:41,512;-3964
19:35:41,516;-3898
19:35:41,520;-3953
19:35:41,523;-3906
19:35:41,527;-3952
19:35:41,531;-3909
19:35:41,535;-3966
19:35:41,539;-3945
19:35:41,543;-3953
19:35:41,547;-3925
19:35:41,551;-3878
19:35:41,555;-3954
19:35:41,559;-3894
19:35:41,562;-3876
19:35:41,566;-3963
19:35:41,570;-3857
19:35:41,574;-3908
19:35:41,578;-3912
19:35:41,582;-3901
19:35:41,586;-3908
19:35:41,590;-3900
19:35:41,594;-3883
19:35:41,598;-3939
19:35:41,602;-3885
19:35:41,605;-4000
19:35:41,609;-3887
19:35:41,613;-3901
19:35:41,617;-3985
19:35:41,621;-3865
19:35:41,625;-3949
19:35:41,629;-3924
19:35:41,633;-3953
19:35:41,637;-3978
19:35:41,641;-3927
19:35:41,645;-3919
19:35:41,648;-3959
19:35:41,652;-3928
19:35:41,656;-3921
19:35:41,660;-3975
19:35:41,664;-3946
19:35:41,668;-4043
19:35:41,672;-3963
19:35:41,676;-3956
19:35:41,680;-3988
19:35:41,684;-3946
19:35:41,688;-3946
19:35:41,691;-3946
19:35:41,695;-3982
19:35:41,699;-4008
19:35:41,703;-3860
19:35:41,707;-3931
19:35:41,711;-3881
19:35:41,715;-3872
19:35:41,719;-3893
19:35:41,723;-3880
19:35:41,727;-3929
19:35:41,730;-3932
19:35:41,734;-3909
19:35:41,738;-3927
19:35:41,742;-3863
19:35:41,746;-3956
19:35:41,750;-3906
19:35:41,754;-3937
19:35:41,758;-3956
19:35:41,762;-4011
19:35:41,766;-3927
19:35:41,770;-3959
19:35:41,773;-3975
19:35:41,777;-3919
19:35:41,781;-3923
19:35:41,785;-3882
19:35:41,789;-3883
19:35:41,793;-3973
19:35:41,797;-3874
19:35:41,801;-3914
19:35:41,805;-3899
19:35:41,809;-3882
19:35:41,812;-3876
19:35:41,816;-3824
19:35:41,820;-3885
19:35:41,824;-3908
19:35:41,828;-3815
19:35:41,832;-3907
19:35:41,836;-3861
19:35:41,840;-3880
19:35:41,844;-3820
19:35:41,848;-3938
19:35:41,852;-3812
19:35:41,855;-3856
19:35:41,859;-3804
19:35:41,863;-3794
19:35:41,867;-3858
19:35:41,871;-3759
19:35:41,875;-3845
19:35:41,879;-3842
19:35:41,883;-3787
19:35:41,887;-3864
19:35:41,891;-3749
19:35:41,895;-3812
19:35:41,898;-3797
19:35:41,902;-3760
19:35:41,906;-3809
19:35:41,910;-3718
19:35:41,914;-3761
19:35:41,918;-3816
19:35:41,922;-3713
19:35:41,926;-3787
19:35:41,930;-3724
19:35:41,934;-3784
19:35:41,938;-3758
19:35:41,941;-3726
19:35:41,945;-3739
19:35:41,949;-3812
19:35:41,953;-3736
19:35:41,957;-3704
19:35:41,961;-3701
19:35:41,965;-3747
19:35:41,969;-3680
19:35:41,973;-3700
19:35:41,977;-3755
19:35:41,980;-3726
19:35:41,984;-3635
19:35:41,988;-3735
19:35:41,992;-3606
19:35:41,996;-3674
19:35:42,000;-3615
19:35:42,004;-3578
19:35:42,008;-3607
19:35:42,012;-3589
19:35:42,016;-3539
19:35:42,020;-3539
19:35:42,023;-3531
19:35:42,027;-3551
19:35:42,031;-3452
19:35:42,035;-3511
19:35:42,039;-3588
19:35:42,043;-3515
19:35:42,047;-3554
19:35:42,051;-3573
19:35:42,055;-3519
19:35:42,059;-3582
19:35:42,062;-3555
19:35:42,066;-3652
19:35:42,070;-3568
19:35:42,074;-3714
19:35:42,078;-3683
19:35:42,082;-3572
19:35:42,086;-3646
19:35:42,090;-3603
19:35:42,094;-3577
19:35:42,098;-3561
19:35:42,102;-3559
19:35:42,105;-3648
19:35:42,109;-3581
19:35:42,113;-3607
19:35:42,117;-3557
19:35:42,121;-3611
19:35:42,125;-3563
19:35:42,129;-3582
19:35:42,133;-3624
19:35:42,137;-3643
19:35:42,141;-3481
19:35:42,145;-3311
19:35:42,148;-3083
19:35:42,152;-2566
19:35:42,156;-2092
19:35:42,160;-1494
19:35:42,164;-1126
19:35:42,168;-1067
19:35:42,172;-1122
19:35:42,176;-1612
19:35:42,180;-2422
19:35:42,184;-3005
19:35:42,187;-3559
19:35:42,191;-3675
19:35:42,195;-3646
19:35:42,199;-3640
19:35:42,203;-3358
19:35:42,207;-3398
19:35:42,211;-3455
19:35:42,215;-3467
19:35:42,219;-3516
19:35:42,223;-3486
19:35:42,227;-3429
19:35:42,230;-3454
19:35:42,234;-3461
19:35:42,238;-3502
19:35:42,242;-3464
19:35:42,246;-3552
19:35:42,250;-3421
19:35:42,254;-3500
19:35:42,258;-3459
19:35:42,262;-3506
19:35:42,266;-3424
19:35:42,270;-3444
19:35:42,273;-3449
19:35:42,277;-3395
19:35:42,281;-3406
19:35:42,285;-3426
19:35:42,289;-3373
19:35:42,293;-3437
19:35:42,297;-3387
19:35:42,301;-3362
19:35:42,305;-3360
19:35:42,309;-3370
19:35:42,312;-3365
19:35:42,316;-3359
19:35:42,320;-3320
19:35:42,324;-3395
19:35:42,328;-3316
19:35:42,332;-3298
19:35:42,336;-3320
19:35:42,340;-3295
19:35:42,344;-3260
19:35:42,348;-3278
19:35:42,352;-3223
19:35:42,355;-3277
19:35:42,359;-3238
19:35:42,363;-3164
19:35:42,367;-3234
19:35:42,371;-3097
19:35:42,375;-3175
19:35:42,379;-3106
19:35:42,383;-3070
19:35:42,387;-3135
19:35:42,391;-2982
19:35:42,395;-2981
19:35:42,398;-2989
19:35:42,402;-2862
19:35:42,406;-2905
19:35:42,410;-2839
19:35:42,414;-2825
19:35:42,418;-2829
19:35:42,422;-2677
19:35:42,426;-2779
19:35:42,430;-2654
19:35:42,434;-2650
19:35:42,437;-2680
19:35:42,441;-2646
19:35:42,445;-2700
19:35:42,449;-2750
19:35:42,453;-2700
19:35:42,457;-2760
19:35:42,461;-2771
19:35:42,465;-2854
19:35:42,469;-2853
19:35:42,473;-2942
19:35:42,477;-2944
19:35:42,480;-3050
19:35:42,484;-2982
19:35:42,488;-3066
19:35:42,492;-3097
19:35:42,496;-3102
19:35:42,500;-3178
19:35:42,504;-3093
19:35:42,508;-3187
19:35:42,512;-3183
19:35:42,516;-3150
19:35:42,520;-3223
19:35:42,523;-3150
19:35:42,527;-3218
19:35:42,531;-3191
19:35:42,535;-3204
19:35:42,539;-3206
19:35:42,543;-3198
19:35:42,547;-3184
19:35:42,551;-3175
19:35:42,555;-3211
19:35:42,559;-3181
19:35:42,562;-3148
19:35:42,566;-3193
19:35:42,570;-3155
19:35:42,574;-3176
19:35:42,578;-3154
19:35:42,582;-3140
19:35:42,586;-3144
19:35:42,590;-3124
19:35:42,594;-3127
19:35:42,598;-3120
19:35:42,602;-3132
19:35:42,605;-3221
19:35:42,609;-3088
19:35:42,613;-3137
19:35:42,617;-3118
19:35:42,621;-3125
19:35:42,625;-3118
19:35:42,629;-3104
19:35:42,633;-3158
19:35:42,637;-3152
19:35:42,641;-3066
19:35:42,645;-3105
19:35:42,648;-3055
19:35:42,652;-3133
19:35:42,656;-3091
19:35:42,660;-3126
19:35:42,664;-3165
19:35:42,668;-3184
19:35:42,672;-3153
19:35:42,676;-3167
19:35:42,680;-3164
19:35:42,684;-3136
19:35:42,687;-3145
19:35:42,691;-3149
19:35:42,695;-3132
19:35:42,699;-3194
19:35:42,703;-3113
19:35:42,707;-3182
19:35:42,711;-3105
19:35:42,715;-3128
19:35:42,719;-3110
19:35:42,723;-3085
19:35:42,727;-3127
19:35:42,730;-3081
19:35:42,734;-3157
19:35:42,738;-3141
19:35:42,742;-3083
19:35:42,746;-3166
19:35:42,750;-3057
19:35:42,754;-3120
19:35:42,758;-3101
19:35:42,762;-3130
19:35:42,766;-3110
19:35:42,770;-3115
19:35:42,773;-3148
19:35:42,777;-3077
19:35:42,781;-3069
19:35:42,785;-3130
19:35:42,789;-3060
19:35:42,793;-3079
19:35:42,797;-3088
19:35:42,801;-3032
19:35:42,805;-3079
19:35:42,809;-3077
19:35:42,812;-3048
19:35:42,816;-3081
19:35:42,820;-3067
19:35:42,824;-3075
19:35:42,828;-3035
19:35:42,832;-2988
19:35:42,836;-3111
19:35:42,840;-3067
19:35:42,844;-3011
19:35:42,848;-3106
19:35:42,852;-2992
19:35:42,855;-3046
19:35:42,859;-3035
19:35:42,863;-2974
19:35:42,867;-3043
19:35:42,871;-2999
19:35:42,875;-2952
19:35:42,879;-2959
19:35:42,883;-2942
19:35:42,887;-3025
19:35:42,891;-2889
19:35:42,895;-2937
19:35:42,898;-2927
19:35:42,902;-2833
19:35:42,906;-2895
19:35:42,910;-2834
19:35:42,914;-2857
19:35:42,918;-2894
19:35:42,922;-2832
19:35:42,926;-2919
19:35:42,930;-2852
19:35:42,934;-2888
19:35:42,937;-2861
19:35:42,941;-2910
19:35:42,945;-2859
19:35:42,949;-2903
19:35:42,953;-2910
19:35:42,957;-2907
19:35:42,961;-2929
19:35:42,965;-2976
19:35:42,969;-2935
19:35:42,973;-3014
19:35:42,977;-2967
19:35:42,980;-2997
19:35:42,984;-2924
19:35:42,988;-2952
19:35:42,992;-2952
19:35:42,996;-2928
19:35:43,000;-2946
19:35:43,004;-2954
19:35:43,008;-2912
19:35:43,012;-2980
19:35:43,016;-2968
19:35:43,020;-2953
19:35:43,023;-3008
19:35:43,027;-2913
19:35:43,031;-2829
19:35:43,035;-2713
19:35:43,039;-2333
19:35:43,043;-1925
19:35:43,047;-1277
19:35:43,051;-680
19:35:43,055;-402
19:35:43,059;-261
19:35:43,062;-539
19:35:43,066;-1145
19:35:43,070;-2071
19:35:43,074;-2616
19:35:43,078;-2971
19:35:43,082;-3094
19:35:43,086;-3053
19:35:43,090;-2798
19:35:43,094;-2830
19:35:43,098;-2773
19:35:43,102;-2782
19:35:43,105;-2983
19:35:43,109;-2860
19:35:43,113;-2890
19:35:43,117;-2822
19:35:43,121;-2876
19:35:43,125;-2878
19:35:43,129;-2868
19:35:43,133;-2861
19:35:43,137;-2923
19:35:43,141;-2775
19:35:43,145;-2895
19:35:43,148;-2830
19:35:43,152;-2736
19:35:43,156;-2828
19:35:43,160;-2811
19:35:43,164;-2785
19:35:43,168;-2871
19:35:43,172;-2750
19:35:43,176;-2790
19:35:43,180;-2711
19:35:43,184;-2743
19:35:43,188;-2713
19:35:43,191;-2725
19:35:43,195;-2735
19:35:43,199;-2752
19:35:43,203;-2649
19:35:43,207;-2701
19:35:43,211;-2660
19:35:43,215;-2634
19:35:43,219;-2702
19:35:43,223;-2575
19:35:43,227;-2701
19:35:43,230;-2622
19:35:43,234;-2573
19:35:43,238;-2629
19:35:43,242;-2528
19:35:43,246;-2557
19:35:43,250;-2530
19:35:43,254;-2503
19:35:43,258;-2538
19:35:43,262;-2487
19:35:43,266;-2436
19:35:43,270;-2404
19:35:43,273;-2362
19:35:43,277;-2316
19:35:43,281;-2300
19:35:43,285;-2284
19:35:43,289;-2249
19:35:43,293;-2302
19:35:43,297;-2150
19:35:43,301;-2169
19:35:43,305;-2157
19:35:43,309;-2101
19:35:43,312;-2073
19:35:43,316;-2097
19:35:43,320;-2009
19:35:43,324;-2099
19:35:43,328;-1968
19:35:43,332;-2012
19:35:43,336;-2038
19:35:43,340;-2063
19:35:43,344;-2121
19:35:43,348;-2177
19:35:43,352;-2244
19:35:43,355;-2343
19:35:43,359;-2294
19:35:43,363;-2405
19:35:43,367;-2399
19:35:43,371;-2426
19:35:43,375;-2486
19:35:43,379;-2542
19:35:43,383;-2465
19:35:43,387;-2612
19:35:43,391;-2533
19:35:43,395;-2567
19:35:43,398;-2557
19:35:43,402;-2586
19:35:43,406;-2562
19:35:43,410;-2580
19:35:43,414;-2569
19:35:43,418;-2667
19:35:43,422;-2530
19:35:43,426;-2704
19:35:43,430;-2570
19:35:43,434;-2609
19:35:43,438;-2618
19:35:43,441;-2542
19:35:43,445;-2629
19:35:43,449;-2586
19:35:43,453;-2566
19:35:43,457;-2591
19:35:43,461;-2550
19:35:43,465;-2597
19:35:43,469;-2522
19:35:43,473;-2582
19:35:43,477;-2545
19:35:43,480;-2595
19:35:43,484;-2525
19:35:43,488;-2542
19:35:43,492;-2597
19:35:43,496;-2568
19:35:43,500;-2541
19:35:43,504;-2575
19:35:43,508;-2564
19:35:43,512;-2586
19:35:43,516;-2545
19:35:43,520;-2537
19:35:43,523;-2553
19:35:43,527;-2538
19:35:43,531;-2530
19:35:43,535;-2518
19:35:43,539;-2535
19:35:43,543;-2559
19:35:43,547;-2507
19:35:43,551;-2466
19:35:43,555;-2597
19:35:43,559;-2570
19:35:43,562;-2532
19:35:43,566;-2577
19:35:43,570;-2507
19:35:43,574;-2636
19:35:43,578;-2484
19:35:43,582;-2444
19:35:43,586;-2552
19:35:43,590;-2399
19:35:43,594;-2436
19:35:43,598;-2424
19:35:43,602;-2404
19:35:43,605;-2462
19:35:43,609;-2364
19:35:43,613;-2398
19:35:43,617;-2390
19:35:43,621;-2383
19:35:43,625;-2401
19:35:43,629;-2395
19:35:43,633;-2430
19:35:43,637;-2423
19:35:43,641;-2384
19:35:43,645;-2455
19:35:43,648;-2454
19:35:43,652;-2468
19:35:43,656;-2485
19:35:43,660;-2493
19:35:43,664;-2522
19:35:43,668;-2544
19:35:43,672;-2541
19:35:43,676;-2520
19:35:43,680;-2538
19:35:43,684;-2490
19:35:43,688;-2509
19:35:43,691;-2477
19:35:43,695;-2492
19:35:43,699;-2558
19:35:43,703;-2459
19:35:43,707;-2552
19:35:43,711;-2504
19:35:43,715;-2483
19:35:43,719;-2538
19:35:43,723;-2518
19:35:43,727;-2515
19:35:43,730;-2500
19:35:43,734;-2390
19:35:43,738;-2250
19:35:43,742;-1855
19:35:43,746;-1313
19:35:43,750;-833
19:35:43,754;-192
19:35:43,758;-72
19:35:43,762;-25
19:35:43,766;-364
19:35:43,770;-951
19:35:43,773;-1700
19:35:43,777;-2296
19:35:43,781;-2525
19:35:43,785;-2511
19:35:43,789;-2512
19:35:43,793;-2460
19:35:43,797;-2238
19:35:43,801;-2296
19:35:43,805;-2466
19:35:43,809;-2443
19:35:43,812;-2462
19:35:43,816;-2434
19:35:43,820;-2461
19:35:43,824;-2537
19:35:43,828;-2447
19:35:43,832;-2454
19:35:43,836;-2432
19:35:43,840;-2378
19:35:43,844;-2406
19:35:43,848;-2466
19:35:43,852;-2429
19:35:43,855;-2454
19:35:43,859;-2385
19:35:43,863;-2436
19:35:43,867;-2410
19:35:43,871;-2411
19:35:43,875;-2414
19:35:43,879;-2370
19:35:43,883;-2395
19:35:43,887;-2418
19:35:43,891;-2329
19:35:43,895;-2394
19:35:43,898;-2330
19:35:43,902;-2299
19:35:43,906;-2360
19:35:43,910;-2272
19:35:43,914;-2319
19:35:43,918;-2335
19:35:43,922;-2248
19:35:43,926;-2297
19:35:43,930;-2225
19:35:43,934;-2302
19:35:43,937;-2254
19:35:43,941;-2177
19:35:43,945;-2262
19:35:43,949;-2183
19:35:43,953;-2188
19:35:43,957;-2168
19:35:43,961;-2107
19:35:43,965;-2141
19:35:43,969;-2069
19:35:43,973;-1996
19:35:43,977;-2061
19:35:43,980;-2006
19:35:43,984;-1954
19:35:43,988;-1939
19:35:43,992;-1893
19:35:43,996;-1871
19:35:44,000;-1781
19:35:44,004;-1760
19:35:44,008;-1789
19:35:44,012;-1760
19:35:44,016;-1720
19:35:44,020;-1742
19:35:44,023;-1715
19:35:44,027;-1691
19:35:44,031;-1654
19:35:44,035;-1696
19:35:44,039;-1784
19:35:44,043;-1806
19:35:44,047;-1877
19:35:44,051;-1918
19:35:44,055;-1980
19:35:44,059;-2033
19:35:44,062;-2025
19:35:44,066;-2102
19:35:44,070;-2109
19:35:44,074;-2187
19:35:44,078;-2213
19:35:44,082;-2111
19:35:44,086;-2263
19:35:44,090;-2204
19:35:44,094;-2193
19:35:44,098;-2220
19:35:44,102;-2214
19:35:44,105;-2319
19:35:44,109;-2195
19:35:44,113;-2248
19:35:44,117;-2266
19:35:44,121;-2263
19:35:44,125;-2264
19:35:44,129;-2248
19:35:44,133;-2288
19:35:44,137;-2289
19:35:44,141;-2253
19:35:44,145;-2250
19:35:44,148;-2253
19:35:44,152;-2249
19:35:44,156;-2201
19:35:44,160;-2262
19:35:44,164;-2198
19:35:44,168;-2280
19:35:44,172;-2195
19:35:44,176;-2200
19:35:44,180;-2226
19:35:44,184;-2221
19:35:44,187;-2166
19:35:44,191;-2235
19:35:44,195;-2233
19:35:44,199;-2222
19:35:44,203;-2210
19:35:44,207;-2175
19:35:44,211;-2260
19:35:44,215;-2177
19:35:44,219;-2232
19:35:44,223;-2186
19:35:44,227;-2216
19:35:44,230;-2243
19:35:44,234;-2226
19:35:44,238;-2215
19:35:44,242;-2228
19:35:44,246;-2282
19:35:44,250;-2226
19:35:44,254;-2278
19:35:44,258;-2262
19:35:44,262;-2277
19:35:44,266;-2301
19:35:44,270;-2213
19:35:44,273;-2264
19:35:44,277;-2280
19:35:44,281;-2225
19:35:44,285;-2254
19:35:44,289;-2211
19:35:44,293;-2331
19:35:44,297;-2206
19:35:44,301;-2231
19:35:44,305;-2277
19:35:44,309;-2219
19:35:44,312;-2271
19:35:44,316;-2256
19:35:44,320;-2231
19:35:44,324;-2305
19:35:44,328;-2244
19:35:44,332;-2214
19:35:44,336;-2239
19:35:44,340;-2230
19:35:44,344;-2242
19:35:44,348;-2203
19:35:44,352;-2228
19:35:44,355;-2271
19:35:44,359;-2232
19:35:44,363;-2219
19:35:44,367;-2249
19:35:44,371;-2215
19:35:44,375;-2271
19:35:44,379;-2206
19:35:44,383;-2249
19:35:44,387;-2276
19:35:44,391;-2218
19:35:44,395;-2189
19:35:44,398;-2216
19:35:44,402;-2198
19:35:44,406;-2210
19:35:44,410;-2205
19:35:44,414;-2226
19:35:44,418;-2304
19:35:44,422;-2133
19:35:44,426;-2252
19:35:44,430;-2175
19:35:44,434;-2202
19:35:44,437;-2202
19:35:44,441;-2197
19:35:44,445;-2255
19:35:44,449;-2204
19:35:44,453;-2183
19:35:44,457;-2176
19:35:44,461;-2176
19:35:44,465;-2196
19:35:44,469;-2190
19:35:44,473;-2219
19:35:44,477;-2210
19:35:44,480;-2246
19:35:44,484;-2178
19:35:44,488;-2221
19:35:44,492;-2238
19:35:44,496;-2179
19:35:44,500;-2234
19:35:44,504;-2192
19:35:44,508;-2214
19:35:44,512;-2253
19:35:44,516;-2217
19:35:44,520;-2257
19:35:44,523;-2230
19:35:44,527;-2196
19:35:44,531;-2225
19:35:44,535;-2193
19:35:44,539;-2190
19:35:44,543;-2201
19:35:44,547;-2177
19:35:44,551;-2168
19:35:44,555;-2161
19:35:44,559;-2181
19:35:44,562;-2091
19:35:44,566;-2201
19:35:44,570;-2172
19:35:44,574;-2186
19:35:44,578;-2141
19:35:44,582;-2150
19:35:44,586;-2166
19:35:44,590;-2146
19:35:44,594;-2155
19:35:44,598;-2177
19:35:44,602;-2195
19:35:44,605;-2246
19:35:44,609;-2080
19:35:44,613;-2138
19:35:44,617;-2105
19:35:44,621;-2046
19:35:44,625;-2097
19:35:44,629;-1981
19:35:44,633;-2067
19:35:44,637;-2017
19:35:44,641;-1930
19:35:44,645;-2034
19:35:44,648;-1927
19:35:44,652;-2040
19:35:44,656;-2000
19:35:44,660;-2026
19:35:44,664;-2045
19:35:44,668;-2086
19:35:44,672;-2042
19:35:44,676;-2073
19:35:44,680;-2068
19:35:44,684;-2075
19:35:44,688;-2092
19:35:44,691;-2159
19:35:44,695;-2141
19:35:44,699;-2173
19:35:44,703;-2130
19:35:44,707;-2144
19:35:44,711;-2105
19:35:44,715;-2119
19:35:44,719;-2120
19:35:44,723;-2096
19:35:44,727;-2160
19:35:44,730;-2111
19:35:44,734;-2108
19:35:44,738;-2116
19:35:44,742;-2071
19:35:44,746;-2116
19:35:44,750;-2097
19:35:44,754;-2137
19:35:44,758;-2085
19:35:44,762;-1958
19:35:44,766;-1824
19:35:44,770;-1170
19:35:44,773;-697
19:35:44,777;-64
19:35:44,781;340
19:35:44,785;481
19:35:44,789;460
19:35:44,793;-17
19:35:44,797;-793
19:35:44,801;-1473
19:35:44,805;-1989
19:35:44,809;-2086
19:35:44,812;-2243
19:35:44,816;-2145
19:35:44,820;-1824
19:35:44,824;-1960
19:35:44,828;-1874
19:35:44,832;-2075
19:35:44,836;-2060
19:35:44,840;-1968
19:35:44,844;-2033
19:35:44,848;-1979
19:35:44,852;-2005
19:35:44,855;-2046
19:35:44,859;-2007
19:35:44,863;-1994
19:35:44,867;-2025
19:35:44,871;-1991
19:35:44,875;-1989
19:35:44,879;-1978
19:35:44,883;-1957
19:35:44,887;-2031
19:35:44,891;-1986
19:35:44,895;-1977
19:35:44,898;-1981
19:35:44,902;-1937
19:35:44,906;-1937
19:35:44,910;-1908
19:35:44,914;-1922
19:35:44,918;-1953
19:35:44,922;-1836
19:35:44,926;-1904
19:35:44,930;-1908
19:35:44,934;-1885
19:35:44,938;-1922
19:35:44,941;-1929
19:35:44,945;-1909
19:35:44,949;-1936
19:35:44,953;-1861
19:35:44,957;-1901
19:35:44,961;-1847
19:35:44,965;-1857
19:35:44,969;-1803
19:35:44,973;-1873
19:35:44,977;-1825
19:35:44,980;-1828
19:35:44,984;-1759
19:35:44,988;-1752
19:35:44,992;-1734
19:35:44,996;-1684
19:35:45,000;-1714
19:35:45,004;-1740
19:35:45,008;-1628
19:35:45,012;-1713
19:35:45,016;-1612
19:35:45,020;-1536
19:35:45,023;-1569
19:35:45,027;-1509
19:35:45,031;-1510
19:35:45,035;-1413
19:35:45,039;-1438
19:35:45,043;-1438
19:35:45,047;-1338
19:35:45,051;-1413
19:35:45,055;-1360
19:35:45,059;-1377
19:35:45,062;-1329
19:35:45,066;-1378
19:35:45,070;-1383
19:35:45,074;-1440
19:35:45,078;-1436
19:35:45,082;-1522
19:35:45,086;-1564
19:35:45,090;-1561
19:35:45,094;-1655
19:35:45,098;-1697
19:35:45,102;-1732
19:35:45,105;-1856
19:35:45,109;-1774
19:35:45,113;-1859
19:35:45,117;-1885
19:35:45,121;-1849
19:35:45,125;-1949
19:35:45,129;-1885
19:35:45,133;-1961
19:35:45,137;-1976
19:35:45,141;-1904
19:35:45,145;-1924
19:35:45,148;-1887
19:35:45,152;-1903
19:35:45,156;-1905
19:35:45,160;-1884
19:35:45,164;-1959
19:35:45,168;-1948
19:35:45,172;-1898
19:35:45,176;-1923
19:35:45,180;-1920
19:35:45,184;-1869
19:35:45,188;-1962
19:35:45,191;-1883
19:35:45,195;-1978
19:35:45,199;-1964
19:35:45,203;-1930
19:35:45,207;-1933
19:35:45,211;-1961
19:35:45,215;-1842
19:35:45,219;-1887
19:35:45,223;-1881
19:35:45,227;-1924
19:35:45,230;-1937
19:35:45,234;-1904
19:35:45,238;-1940
19:35:45,242;-1876
19:35:45,246;-1945
19:35:45,250;-1886
19:35:45,254;-1899
19:35:45,258;-1931
19:35:45,262;-1881
19:35:45,266;-1930
19:35:45,270;-1900
19:35:45,273;-1952
19:35:45,277;-1927
19:35:45,281;-1931
19:35:45,285;-1955
19:35:45,289;-1940
19:35:45,293;-2033
19:35:45,297;-1952
19:35:45,301;-1946
19:35:45,305;-1989
19:35:45,309;-1899
19:35:45,312;-1925
19:35:45,316;-1975
19:35:45,320;-1898
19:35:45,324;-2031
19:35:45,328;-1903
19:35:45,332;-1948
19:35:45,336;-2006
19:35:45,340;-1956
19:35:45,344;-1983
19:35:45,348;-1959
19:35:45,352;-1995
19:35:45,355;-1982
19:35:45,359;-1977
19:35:45,363;-2012
19:35:45,367;-1987
19:35:45,371;-2002
19:35:45,375;-1965
19:35:45,379;-1964
19:35:45,383;-1930
19:35:45,387;-2011
19:35:45,391;-1944
19:35:45,395;-1947
19:35:45,398;-1983
19:35:45,402;-1951
19:35:45,406;-1938
19:35:45,410;-1962
19:35:45,414;-1967
19:35:45,418;-1972
19:35:45,422;-1927
19:35:45,426;-2021
19:35:45,430;-1934
19:35:45,434;-1975
19:35:45,437;-1960
19:35:45,441;-1927
19:35:45,445;-1958
19:35:45,449;-1977
19:35:45,453;-1942
19:35:45,457;-1950
19:35:45,461;-1935
19:35:45,465;-1919
19:35:45,469;-1892
19:35:45,473;-1959
19:35:45,477;-1956
19:35:45,480;-1985
19:35:45,484;-1958
19:35:45,488;-1888
19:35:45,492;-1928
19:35:45,496;-1906
19:35:45,500;-1886
19:35:45,504;-1903
19:35:45,508;-1908
19:35:45,512;-1945
19:35:45,516;-1839
19:35:45,520;-1840
19:35:45,523;-1855
19:35:45,527;-1833
19:35:45,531;-1807
19:35:45,535;-1809
19:35:45,539;-1792
19:35:45,543;-1809
19:35:45,547;-1734
19:35:45,551;-1769
19:35:45,555;-1837
19:35:45,559;-1806
19:35:45,562;-1781
19:35:45,566;-1868
19:35:45,570;-1765
19:35:45,574;-1856
19:35:45,578;-1793
19:35:45,582;-1815
19:35:45,586;-1897
19:35:45,590;-1837
19:35:45,594;-1955
19:35:45,598;-1879
19:35:45,602;-1877
19:35:45,605;-2023
19:35:45,609;-1842
19:35:45,613;-1891
19:35:45,617;-1915
19:35:45,621;-1845
19:35:45,625;-1888
19:35:45,629;-1867
19:35:45,633;-1881
19:35:45,637;-1940
19:35:45,641;-1827
19:35:45,645;-1978
19:35:45,648;-1871
19:35:45,652;-1902
19:35:45,656;-1801
19:35:45,660;-1569
19:35:45,664;-1349
