Signal Type: ECG_Type
Start Time: 26/04/2023 18:29:12
Sample Rate: 256
Length: 74686
Unit: µV

Data:
18:29:12,000; 0
18:29:12,004; 0
18:29:12,008; 0
18:29:12,012; 0
18:29:12,016; 0
18:29:12,020; 0
18:29:12,023; 0
18:29:12,027; 0
18:29:12,031; 0
18:29:12,035; 0
18:29:12,039; 0
18:29:12,043; 0
18:29:12,047; 0
18:29:12,051; 0
18:29:12,055; 0
18:29:12,059; 0
18:29:12,062; 0
18:29:12,066; 0
18:29:12,070; 0
18:29:12,074; 0
18:29:12,078; 0
18:29:12,082; 0
18:29:12,086; 0
18:29:12,090; 0
18:29:12,094; 0
18:29:12,098; 0
18:29:12,102; 0
18:29:12,105; 0
18:29:12,109; 0
18:29:12,113; 0
18:29:12,117; 0
18:29:12,121; 0
18:29:12,125; 0
18:29:12,129; 0
18:29:12,133; 0
18:29:12,137; 0
18:29:12,141; 0
18:29:12,145; 0
18:29:12,148; 0
18:29:12,152; 0
18:29:12,156; 0
18:29:12,160; 0
18:29:12,164; 0
18:29:12,168; 0
18:29:12,172; 0
18:29:12,176; 0
18:29:12,180; 0
18:29:12,184; 0
18:29:12,188; 0
18:29:12,191; 0
18:29:12,195; 0
18:29:12,199; 0
18:29:12,203; 0
18:29:12,207; 0
18:29:12,211; 0
18:29:12,215; 0
18:29:12,219; 0
18:29:12,223; 0
18:29:12,227; 0
18:29:12,230; 0
18:29:12,234; 0
18:29:12,238; 0
18:29:12,242; 0
18:29:12,246; 0
18:29:12,250; 0
18:29:12,254; 0
18:29:12,258; 0
18:29:12,262; 0
18:29:12,266; 0
18:29:12,270; 0
18:29:12,273; 0
18:29:12,277; 0
18:29:12,281; 0
18:29:12,285; 0
18:29:12,289; 0
18:29:12,293; 0
18:29:12,297; 0
18:29:12,301; 0
18:29:12,305; 0
18:29:12,309; 0
18:29:12,312; 0
18:29:12,316; 0
18:29:12,320; 0
18:29:12,324; 0
18:29:12,328; 0
18:29:12,332; 0
18:29:12,336; 0
18:29:12,340; 0
18:29:12,344; 0
18:29:12,348; 0
18:29:12,352; 0
18:29:12,355; 0
18:29:12,359; 0
18:29:12,363; 0
18:29:12,367; 0
18:29:12,371; 0
18:29:12,375; 0
18:29:12,379; 0
18:29:12,383; 0
18:29:12,387; 0
18:29:12,391; 0
18:29:12,395; 0
18:29:12,398; 0
18:29:12,402; 0
18:29:12,406; 0
18:29:12,410; 0
18:29:12,414; 0
18:29:12,418; 0
18:29:12,422; 0
18:29:12,426; 0
18:29:12,430; 0
18:29:12,434; 0
18:29:12,438; 0
18:29:12,441; 0
18:29:12,445; 0
18:29:12,449; 0
18:29:12,453; 0
18:29:12,457; 0
18:29:12,461; 0
18:29:12,465; 0
18:29:12,469; 0
18:29:12,473; 0
18:29:12,477; 0
18:29:12,480; 0
18:29:12,484; 0
18:29:12,488; 0
18:29:12,492; 0
18:29:12,496; 0
18:29:12,500; 0
18:29:12,504; 0
18:29:12,508; 0
18:29:12,512; 0
18:29:12,516; 0
18:29:12,520; 0
18:29:12,523; 0
18:29:12,527; 0
18:29:12,531; 0
18:29:12,535; 0
18:29:12,539; 0
18:29:12,543; 0
18:29:12,547; 0
18:29:12,551; 0
18:29:12,555; 0
18:29:12,559; 0
18:29:12,562; 0
18:29:12,566; 0
18:29:12,570; 0
18:29:12,574; 0
18:29:12,578; 0
18:29:12,582; 0
18:29:12,586; 0
18:29:12,590; 0
18:29:12,594; 0
18:29:12,598; 0
18:29:12,602; 0
18:29:12,605; 0
18:29:12,609; 0
18:29:12,613; 0
18:29:12,617; 0
18:29:12,621; 0
18:29:12,625; 0
18:29:12,629; 0
18:29:12,633; 0
18:29:12,637; 0
18:29:12,641; 0
18:29:12,645; 0
18:29:12,648; 0
18:29:12,652; 0
18:29:12,656; 0
18:29:12,660; 0
18:29:12,664; 0
18:29:12,668; 0
18:29:12,672; 0
18:29:12,676; 0
18:29:12,680; 0
18:29:12,684; 0
18:29:12,687; 0
18:29:12,691; 0
18:29:12,695; 0
18:29:12,699; 0
18:29:12,703; 0
18:29:12,707; 0
18:29:12,711; 0
18:29:12,715; 0
18:29:12,719; 0
18:29:12,723; 0
18:29:12,727; 0
18:29:12,730; 0
18:29:12,734; 0
18:29:12,738; 0
18:29:12,742; 0
18:29:12,746; 0
18:29:12,750; -104
18:29:12,754; -142
18:29:12,758; -193
18:29:12,762; -221
18:29:12,766; -168
18:29:12,770; -131
18:29:12,773; -186
18:29:12,777; -140
18:29:12,781; -123
18:29:12,785; -118
18:29:12,789; -115
18:29:12,793; -84
18:29:12,797; -115
18:29:12,801; -93
18:29:12,805; -103
18:29:12,809; -75
18:29:12,813; -55
18:29:12,816; -49
18:29:12,820; 2
18:29:12,824; 14
18:29:12,828; 17
18:29:12,832; 46
18:29:12,836; 63
18:29:12,840; 101
18:29:12,844; 135
18:29:12,848; 163
18:29:12,852; 226
18:29:12,855; 279
18:29:12,859; 279
18:29:12,863; 331
18:29:12,867; 346
18:29:12,871; 390
18:29:12,875; 423
18:29:12,879; 420
18:29:12,883; 476
18:29:12,887; 478
18:29:12,891; 454
18:29:12,895; 460
18:29:12,898; 435
18:29:12,902; 396
18:29:12,906; 340
18:29:12,910; 288
18:29:12,914; 202
18:29:12,918; 152
18:29:12,922; 79
18:29:12,926; 46
18:29:12,930; 15
18:29:12,934; -42
18:29:12,938; -63
18:29:12,941; -98
18:29:12,945; -119
18:29:12,949; -148
18:29:12,953; -179
18:29:12,957; -164
18:29:12,961; -199
18:29:12,965; -201
18:29:12,969; -175
18:29:12,973; -198
18:29:12,977; -203
18:29:12,980; -220
18:29:12,984; -224
18:29:12,988; -223
18:29:12,992; -261
18:29:12,996; -219
18:29:13,000; -235
18:29:13,004; -242
18:29:13,008; -216
18:29:13,012; -231
18:29:13,016; -214
18:29:13,020; -218
18:29:13,023; -242
18:29:13,027; -229
18:29:13,031; -245
18:29:13,035; -237
18:29:13,039; -233
18:29:13,043; -209
18:29:13,047; -210
18:29:13,051; -222
18:29:13,055; -209
18:29:13,059; -219
18:29:13,062; -221
18:29:13,066; -225
18:29:13,070; -215
18:29:13,074; -201
18:29:13,078; -224
18:29:13,082; -205
18:29:13,086; -212
18:29:13,090; -218
18:29:13,094; -235
18:29:13,098; -241
18:29:13,102; -226
18:29:13,105; -227
18:29:13,109; -235
18:29:13,113; -241
18:29:13,117; -222
18:29:13,121; -262
18:29:13,125; -274
18:29:13,129; -251
18:29:13,133; -250
18:29:13,137; -221
18:29:13,141; -270
18:29:13,145; -253
18:29:13,148; -266
18:29:13,152; -280
18:29:13,156; -283
18:29:13,160; -267
18:29:13,164; -271
18:29:13,168; -258
18:29:13,172; -271
18:29:13,176; -271
18:29:13,180; -274
18:29:13,184; -287
18:29:13,188; -288
18:29:13,191; -281
18:29:13,195; -297
18:29:13,199; -267
18:29:13,203; -263
18:29:13,207; -242
18:29:13,211; -232
18:29:13,215; -207
18:29:13,219; -195
18:29:13,223; -184
18:29:13,227; -196
18:29:13,230; -165
18:29:13,234; -176
18:29:13,238; -140
18:29:13,242; -148
18:29:13,246; -169
18:29:13,250; -154
18:29:13,254; -184
18:29:13,258; -199
18:29:13,262; -194
18:29:13,266; -212
18:29:13,270; -207
18:29:13,273; -219
18:29:13,277; -248
18:29:13,281; -282
18:29:13,285; -296
18:29:13,289; -313
18:29:13,293; -323
18:29:13,297; -323
18:29:13,301; -334
18:29:13,305; -340
18:29:13,309; -340
18:29:13,312; -355
18:29:13,316; -327
18:29:13,320; -346
18:29:13,324; -316
18:29:13,328; -325
18:29:13,332; -332
18:29:13,336; -330
18:29:13,340; -346
18:29:13,344; -346
18:29:13,348; -363
18:29:13,352; -360
18:29:13,355; -306
18:29:13,359; -257
18:29:13,363; -159
18:29:13,367; 103
18:29:13,371; 701
18:29:13,375; 1314
18:29:13,379; 1825
18:29:13,383; 2234
18:29:13,387; 2304
18:29:13,391; 2043
18:29:13,395; 1322
18:29:13,398; 628
18:29:13,402; -96
18:29:13,406; -366
18:29:13,410; -366
18:29:13,414; -463
18:29:13,418; -218
18:29:13,422; -168
18:29:13,426; -163
18:29:13,430; -316
18:29:13,434; -368
18:29:13,438; -348
18:29:13,441; -287
18:29:13,445; -293
18:29:13,449; -298
18:29:13,453; -356
18:29:13,457; -333
18:29:13,461; -320
18:29:13,465; -309
18:29:13,469; -311
18:29:13,473; -322
18:29:13,477; -320
18:29:13,480; -293
18:29:13,484; -289
18:29:13,488; -294
18:29:13,492; -298
18:29:13,496; -280
18:29:13,500; -274
18:29:13,504; -288
18:29:13,508; -282
18:29:13,512; -264
18:29:13,516; -265
18:29:13,520; -264
18:29:13,523; -256
18:29:13,527; -260
18:29:13,531; -250
18:29:13,535; -238
18:29:13,539; -233
18:29:13,543; -203
18:29:13,547; -201
18:29:13,551; -182
18:29:13,555; -193
18:29:13,559; -164
18:29:13,562; -163
18:29:13,566; -118
18:29:13,570; -89
18:29:13,574; -63
18:29:13,578; -47
18:29:13,582; -9
18:29:13,586; 30
18:29:13,590; 50
18:29:13,594; 61
18:29:13,598; 125
18:29:13,602; 160
18:29:13,605; 205
18:29:13,609; 233
18:29:13,613; 269
18:29:13,617; 314
18:29:13,621; 323
18:29:13,625; 352
18:29:13,629; 367
18:29:13,633; 380
18:29:13,637; 392
18:29:13,641; 325
18:29:13,645; 314
18:29:13,648; 260
18:29:13,652; 208
18:29:13,656; 155
18:29:13,660; 99
18:29:13,664; 50
18:29:13,668; 10
18:29:13,672; -55
18:29:13,676; -98
18:29:13,680; -124
18:29:13,684; -158
18:29:13,688; -183
18:29:13,691; -224
18:29:13,695; -223
18:29:13,699; -226
18:29:13,703; -261
18:29:13,707; -263
18:29:13,711; -279
18:29:13,715; -276
18:29:13,719; -288
18:29:13,723; -290
18:29:13,727; -289
18:29:13,730; -279
18:29:13,734; -298
18:29:13,738; -296
18:29:13,742; -285
18:29:13,746; -306
18:29:13,750; -302
18:29:13,754; -294
18:29:13,758; -300
18:29:13,762; -294
18:29:13,766; -292
18:29:13,770; -283
18:29:13,773; -289
18:29:13,777; -273
18:29:13,781; -291
18:29:13,785; -277
18:29:13,789; -282
18:29:13,793; -281
18:29:13,797; -271
18:29:13,801; -273
18:29:13,805; -252
18:29:13,809; -264
18:29:13,812; -270
18:29:13,816; -257
18:29:13,820; -269
18:29:13,824; -264
18:29:13,828; -263
18:29:13,832; -277
18:29:13,836; -261
18:29:13,840; -265
18:29:13,844; -271
18:29:13,848; -262
18:29:13,852; -257
18:29:13,855; -262
18:29:13,859; -294
18:29:13,863; -281
18:29:13,867; -288
18:29:13,871; -293
18:29:13,875; -288
18:29:13,879; -294
18:29:13,883; -282
18:29:13,887; -278
18:29:13,891; -317
18:29:13,895; -282
18:29:13,898; -294
18:29:13,902; -308
18:29:13,906; -307
18:29:13,910; -302
18:29:13,914; -315
18:29:13,918; -311
18:29:13,922; -319
18:29:13,926; -312
18:29:13,930; -304
18:29:13,934; -314
18:29:13,938; -314
18:29:13,941; -315
18:29:13,945; -318
18:29:13,949; -307
18:29:13,953; -340
18:29:13,957; -315
18:29:13,961; -323
18:29:13,965; -328
18:29:13,969; -335
18:29:13,973; -305
18:29:13,977; -313
18:29:13,980; -303
18:29:13,984; -334
18:29:13,988; -319
18:29:13,992; -319
18:29:13,996; -339
18:29:14,000; -317
18:29:14,004; -323
18:29:14,008; -319
18:29:14,012; -306
18:29:14,016; -328
18:29:14,020; -309
18:29:14,023; -323
18:29:14,027; -324
18:29:14,031; -322
18:29:14,035; -330
18:29:14,039; -326
18:29:14,043; -318
18:29:14,047; -324
18:29:14,051; -313
18:29:14,055; -322
18:29:14,059; -325
18:29:14,062; -324
18:29:14,066; -317
18:29:14,070; -324
18:29:14,074; -316
18:29:14,078; -335
18:29:14,082; -314
18:29:14,086; -322
18:29:14,090; -313
18:29:14,094; -318
18:29:14,098; -301
18:29:14,102; -307
18:29:14,105; -320
18:29:14,109; -328
18:29:14,113; -316
18:29:14,117; -323
18:29:14,121; -332
18:29:14,125; -320
18:29:14,129; -328
18:29:14,133; -328
18:29:14,137; -305
18:29:14,141; -330
18:29:14,145; -312
18:29:14,148; -311
18:29:14,152; -318
18:29:14,156; -314
18:29:14,160; -329
18:29:14,164; -307
18:29:14,168; -316
18:29:14,172; -316
18:29:14,176; -311
18:29:14,180; -331
18:29:14,184; -310
18:29:14,187; -311
18:29:14,191; -317
18:29:14,195; -301
18:29:14,199; -299
18:29:14,203; -331
18:29:14,207; -305
18:29:14,211; -333
18:29:14,215; -326
18:29:14,219; -316
18:29:14,223; -307
18:29:14,227; -302
18:29:14,230; -296
18:29:14,234; -299
18:29:14,238; -266
18:29:14,242; -268
18:29:14,246; -258
18:29:14,250; -237
18:29:14,254; -221
18:29:14,258; -212
18:29:14,262; -194
18:29:14,266; -195
18:29:14,270; -184
18:29:14,273; -203
18:29:14,277; -191
18:29:14,281; -209
18:29:14,285; -230
18:29:14,289; -214
18:29:14,293; -216
18:29:14,297; -243
18:29:14,301; -232
18:29:14,305; -238
18:29:14,309; -250
18:29:14,312; -282
18:29:14,316; -301
18:29:14,320; -321
18:29:14,324; -317
18:29:14,328; -327
18:29:14,332; -330
18:29:14,336; -315
18:29:14,340; -316
18:29:14,344; -322
18:29:14,348; -306
18:29:14,352; -322
18:29:14,355; -291
18:29:14,359; -312
18:29:14,363; -305
18:29:14,367; -310
18:29:14,371; -324
18:29:14,375; -330
18:29:14,379; -281
18:29:14,383; -240
18:29:14,387; -45
18:29:14,391; 274
18:29:14,395; 771
18:29:14,398; 1455
18:29:14,402; 1925
18:29:14,406; 2304
18:29:14,410; 2400
18:29:14,414; 2170
18:29:14,418; 1396
18:29:14,422; 606
18:29:14,426; -37
18:29:14,430; -354
18:29:14,434; -432
18:29:14,438; -335
18:29:14,441; -140
18:29:14,445; -125
18:29:14,449; -93
18:29:14,453; -313
18:29:14,457; -354
18:29:14,461; -306
18:29:14,465; -286
18:29:14,469; -260
18:29:14,473; -273
18:29:14,477; -273
18:29:14,480; -252
18:29:14,484; -261
18:29:14,488; -251
18:29:14,492; -284
18:29:14,496; -270
18:29:14,500; -268
18:29:14,504; -262
18:29:14,508; -260
18:29:14,512; -242
18:29:14,516; -264
18:29:14,520; -256
18:29:14,523; -236
18:29:14,527; -237
18:29:14,531; -243
18:29:14,535; -230
18:29:14,539; -227
18:29:14,543; -202
18:29:14,547; -202
18:29:14,551; -211
18:29:14,555; -199
18:29:14,559; -196
18:29:14,562; -188
18:29:14,566; -164
18:29:14,570; -169
18:29:14,574; -131
18:29:14,578; -155
18:29:14,582; -138
18:29:14,586; -110
18:29:14,590; -105
18:29:14,594; -71
18:29:14,598; -40
18:29:14,602; -41
18:29:14,605; 16
18:29:14,609; 33
18:29:14,613; 54
18:29:14,617; 102
18:29:14,621; 123
18:29:14,625; 143
18:29:14,629; 190
18:29:14,633; 201
18:29:14,637; 277
18:29:14,641; 283
18:29:14,645; 323
18:29:14,648; 353
18:29:14,652; 370
18:29:14,656; 383
18:29:14,660; 407
18:29:14,664; 409
18:29:14,668; 431
18:29:14,672; 385
18:29:14,676; 372
18:29:14,680; 340
18:29:14,684; 288
18:29:14,688; 234
18:29:14,691; 176
18:29:14,695; 128
18:29:14,699; 94
18:29:14,703; 19
18:29:14,707; 4
18:29:14,711; -63
18:29:14,715; -80
18:29:14,719; -108
18:29:14,723; -135
18:29:14,727; -136
18:29:14,730; -149
18:29:14,734; -183
18:29:14,738; -190
18:29:14,742; -197
18:29:14,746; -214
18:29:14,750; -212
18:29:14,754; -208
18:29:14,758; -217
18:29:14,762; -208
18:29:14,766; -217
18:29:14,770; -218
18:29:14,773; -205
18:29:14,777; -216
18:29:14,781; -209
18:29:14,785; -214
18:29:14,789; -198
18:29:14,793; -183
18:29:14,797; -196
18:29:14,801; -182
18:29:14,805; -188
18:29:14,809; -186
18:29:14,812; -201
18:29:14,816; -171
18:29:14,820; -178
18:29:14,824; -164
18:29:14,828; -178
18:29:14,832; -166
18:29:14,836; -181
18:29:14,840; -171
18:29:14,844; -174
18:29:14,848; -178
18:29:14,852; -176
18:29:14,855; -164
18:29:14,859; -188
18:29:14,863; -192
18:29:14,867; -184
18:29:14,871; -200
18:29:14,875; -198
18:29:14,879; -210
18:29:14,883; -200
18:29:14,887; -194
18:29:14,891; -226
18:29:14,895; -211
18:29:14,898; -223
18:29:14,902; -214
18:29:14,906; -225
18:29:14,910; -216
18:29:14,914; -224
18:29:14,918; -208
18:29:14,922; -238
18:29:14,926; -238
18:29:14,930; -237
18:29:14,934; -242
18:29:14,938; -249
18:29:14,941; -244
18:29:14,945; -235
18:29:14,949; -231
18:29:14,953; -247
18:29:14,957; -247
18:29:14,961; -245
18:29:14,965; -262
18:29:14,969; -249
18:29:14,973; -255
18:29:14,977; -244
18:29:14,980; -254
18:29:14,984; -260
18:29:14,988; -260
18:29:14,992; -262
18:29:14,996; -258
18:29:15,000; -263
18:29:15,004; -264
18:29:15,008; -258
18:29:15,012; -270
18:29:15,016; -263
18:29:15,020; -260
18:29:15,023; -270
18:29:15,027; -260
18:29:15,031; -268
18:29:15,035; -264
18:29:15,039; -268
18:29:15,043; -245
18:29:15,047; -262
18:29:15,051; -269
18:29:15,055; -262
18:29:15,059; -264
18:29:15,062; -268
18:29:15,066; -263
18:29:15,070; -259
18:29:15,074; -245
18:29:15,078; -268
18:29:15,082; -263
18:29:15,086; -256
18:29:15,090; -256
18:29:15,094; -261
18:29:15,098; -251
18:29:15,102; -259
18:29:15,105; -245
18:29:15,109; -258
18:29:15,113; -264
18:29:15,117; -249
18:29:15,121; -255
18:29:15,125; -254
18:29:15,129; -238
18:29:15,133; -260
18:29:15,137; -237
18:29:15,141; -267
18:29:15,145; -257
18:29:15,148; -255
18:29:15,152; -254
18:29:15,156; -247
18:29:15,160; -242
18:29:15,164; -248
18:29:15,168; -238
18:29:15,172; -258
18:29:15,176; -223
18:29:15,180; -225
18:29:15,184; -224
18:29:15,188; -189
18:29:15,191; -191
18:29:15,195; -160
18:29:15,199; -147
18:29:15,203; -153
18:29:15,207; -132
18:29:15,211; -125
18:29:15,215; -122
18:29:15,219; -137
18:29:15,223; -134
18:29:15,227; -148
18:29:15,230; -154
18:29:15,234; -183
18:29:15,238; -164
18:29:15,242; -184
18:29:15,246; -191
18:29:15,250; -194
18:29:15,254; -213
18:29:15,258; -243
18:29:15,262; -245
18:29:15,266; -271
18:29:15,270; -280
18:29:15,273; -286
18:29:15,277; -274
18:29:15,281; -255
18:29:15,285; -273
18:29:15,289; -262
18:29:15,293; -248
18:29:15,297; -272
18:29:15,301; -264
18:29:15,305; -265
18:29:15,309; -258
18:29:15,312; -272
18:29:15,316; -278
18:29:15,320; -283
18:29:15,324; -240
18:29:15,328; -162
18:29:15,332; -8
18:29:15,336; 267
18:29:15,340; 752
18:29:15,344; 1486
18:29:15,348; 2045
18:29:15,352; 2378
18:29:15,355; 2390
18:29:15,359; 2213
18:29:15,363; 1541
18:29:15,367; 582
18:29:15,371; 7
18:29:15,375; -220
18:29:15,379; -361
18:29:15,383; -370
18:29:15,387; -174
18:29:15,391; -96
18:29:15,395; -121
18:29:15,398; -267
18:29:15,402; -305
18:29:15,406; -276
18:29:15,410; -257
18:29:15,414; -230
18:29:15,418; -208
18:29:15,422; -244
18:29:15,426; -236
18:29:15,430; -222
18:29:15,434; -197
18:29:15,438; -224
18:29:15,441; -205
18:29:15,445; -221
18:29:15,449; -179
18:29:15,453; -212
18:29:15,457; -205
18:29:15,461; -208
18:29:15,465; -197
18:29:15,469; -199
18:29:15,473; -192
18:29:15,477; -173
18:29:15,480; -155
18:29:15,484; -181
18:29:15,488; -149
18:29:15,492; -158
18:29:15,496; -151
18:29:15,500; -148
18:29:15,504; -140
18:29:15,508; -122
18:29:15,512; -110
18:29:15,516; -102
18:29:15,520; -103
18:29:15,523; -86
18:29:15,527; -60
18:29:15,531; -62
18:29:15,535; -33
18:29:15,539; -21
18:29:15,543; 18
18:29:15,547; 30
18:29:15,551; 61
18:29:15,555; 103
18:29:15,559; 112
18:29:15,562; 148
18:29:15,566; 191
18:29:15,570; 210
18:29:15,574; 260
18:29:15,578; 280
18:29:15,582; 334
18:29:15,586; 359
18:29:15,590; 375
18:29:15,594; 406
18:29:15,598; 449
18:29:15,602; 462
18:29:15,605; 483
18:29:15,609; 487
18:29:15,613; 487
18:29:15,617; 464
18:29:15,621; 427
18:29:15,625; 374
18:29:15,629; 328
18:29:15,633; 263
18:29:15,637; 201
18:29:15,641; 143
18:29:15,645; 98
18:29:15,648; 35
18:29:15,652; 8
18:29:15,656; -38
18:29:15,660; -64
18:29:15,664; -96
18:29:15,668; -110
18:29:15,672; -151
18:29:15,676; -150
18:29:15,680; -171
18:29:15,684; -178
18:29:15,688; -180
18:29:15,691; -190
18:29:15,695; -198
18:29:15,699; -198
18:29:15,703; -225
18:29:15,707; -215
18:29:15,711; -213
18:29:15,715; -218
18:29:15,719; -216
18:29:15,723; -212
18:29:15,727; -205
18:29:15,730; -194
18:29:15,734; -220
18:29:15,738; -200
18:29:15,742; -189
18:29:15,746; -204
18:29:15,750; -195
18:29:15,754; -188
18:29:15,758; -187
18:29:15,762; -183
18:29:15,766; -188
18:29:15,770; -184
18:29:15,773; -183
18:29:15,777; -176
18:29:15,781; -188
18:29:15,785; -176
18:29:15,789; -185
18:29:15,793; -164
18:29:15,797; -186
18:29:15,801; -180
18:29:15,805; -175
18:29:15,809; -195
18:29:15,812; -188
18:29:15,816; -191
18:29:15,820; -195
18:29:15,824; -181
18:29:15,828; -210
18:29:15,832; -196
18:29:15,836; -203
18:29:15,840; -212
18:29:15,844; -220
18:29:15,848; -211
18:29:15,852; -232
18:29:15,855; -202
18:29:15,859; -234
18:29:15,863; -240
18:29:15,867; -223
18:29:15,871; -247
18:29:15,875; -240
18:29:15,879; -243
18:29:15,883; -236
18:29:15,887; -224
18:29:15,891; -262
18:29:15,895; -238
18:29:15,898; -259
18:29:15,902; -239
18:29:15,906; -242
18:29:15,910; -232
18:29:15,914; -248
18:29:15,918; -234
18:29:15,922; -248
18:29:15,926; -246
18:29:15,930; -240
18:29:15,934; -243
18:29:15,938; -238
18:29:15,941; -251
18:29:15,945; -248
18:29:15,949; -228
18:29:15,953; -256
18:29:15,957; -238
18:29:15,961; -249
18:29:15,965; -253
18:29:15,969; -256
18:29:15,973; -257
18:29:15,977; -249
18:29:15,980; -239
18:29:15,984; -260
18:29:15,988; -239
18:29:15,992; -247
18:29:15,996; -249
18:29:16,000; -255
18:29:16,004; -253
18:29:16,008; -256
18:29:16,012; -245
18:29:16,016; -259
18:29:16,020; -251
18:29:16,023; -246
18:29:16,027; -258
18:29:16,031; -251
18:29:16,035; -253
18:29:16,039; -246
18:29:16,043; -239
18:29:16,047; -254
18:29:16,051; -249
18:29:16,055; -250
18:29:16,059; -252
18:29:16,063; -244
18:29:16,066; -248
18:29:16,070; -248
18:29:16,074; -231
18:29:16,078; -263
18:29:16,082; -237
18:29:16,086; -248
18:29:16,090; -247
18:29:16,094; -248
18:29:16,098; -246
18:29:16,102; -223
18:29:16,105; -220
18:29:16,109; -203
18:29:16,113; -198
18:29:16,117; -172
18:29:16,121; -174
18:29:16,125; -153
18:29:16,129; -147
18:29:16,133; -127
18:29:16,137; -96
18:29:16,141; -128
18:29:16,145; -123
18:29:16,148; -136
18:29:16,152; -166
18:29:16,156; -172
18:29:16,160; -179
18:29:16,164; -186
18:29:16,168; -193
18:29:16,172; -194
18:29:16,176; -196
18:29:16,180; -229
18:29:16,184; -248
18:29:16,188; -255
18:29:16,191; -279
18:29:16,195; -284
18:29:16,199; -267
18:29:16,203; -284
18:29:16,207; -263
18:29:16,211; -275
18:29:16,215; -266
18:29:16,219; -274
18:29:16,223; -272
18:29:16,227; -260
18:29:16,230; -258
18:29:16,234; -281
18:29:16,238; -270
18:29:16,242; -313
18:29:16,246; -288
18:29:16,250; -226
18:29:16,254; -94
18:29:16,258; 124
18:29:16,262; 546
18:29:16,266; 1102
18:29:16,270; 1712
18:29:16,273; 2096
18:29:16,277; 2357
18:29:16,281; 2248
18:29:16,285; 1736
18:29:16,289; 867
18:29:16,293; 254
18:29:16,297; -250
18:29:16,301; -387
18:29:16,305; -411
18:29:16,309; -227
18:29:16,312; -145
18:29:16,316; -160
18:29:16,320; -192
18:29:16,324; -248
18:29:16,328; -283
18:29:16,332; -226
18:29:16,336; -228
18:29:16,340; -248
18:29:16,344; -225
18:29:16,348; -257
18:29:16,352; -202
18:29:16,355; -185
18:29:16,359; -243
18:29:16,363; -237
18:29:16,367; -203
18:29:16,371; -215
18:29:16,375; -201
18:29:16,379; -191
18:29:16,383; -187
18:29:16,387; -186
18:29:16,391; -199
18:29:16,395; -168
18:29:16,398; -166
18:29:16,402; -165
18:29:16,406; -172
18:29:16,410; -170
18:29:16,414; -150
18:29:16,418; -148
18:29:16,422; -149
18:29:16,426; -135
18:29:16,430; -126
18:29:16,434; -123
18:29:16,438; -119
18:29:16,441; -101
18:29:16,445; -84
18:29:16,449; -73
18:29:16,453; -76
18:29:16,457; -46
18:29:16,461; -28
18:29:16,465; -13
18:29:16,469; 14
18:29:16,473; 37
18:29:16,477; 70
18:29:16,480; 108
18:29:16,484; 135
18:29:16,488; 160
18:29:16,492; 196
18:29:16,496; 248
18:29:16,500; 275
18:29:16,504; 312
18:29:16,508; 356
18:29:16,512; 402
18:29:16,516; 410
18:29:16,520; 430
18:29:16,523; 461
18:29:16,527; 482
18:29:16,531; 483
18:29:16,535; 490
18:29:16,539; 483
18:29:16,543; 448
18:29:16,547; 397
18:29:16,551; 347
18:29:16,555; 294
18:29:16,559; 237
18:29:16,562; 167
18:29:16,566; 130
18:29:16,570; 60
18:29:16,574; 37
18:29:16,578; -14
18:29:16,582; -55
18:29:16,586; -76
18:29:16,590; -98
18:29:16,594; -128
18:29:16,598; -153
18:29:16,602; -155
18:29:16,605; -158
18:29:16,609; -190
18:29:16,613; -192
18:29:16,617; -190
18:29:16,621; -204
18:29:16,625; -201
18:29:16,629; -201
18:29:16,633; -205
18:29:16,637; -179
18:29:16,641; -202
18:29:16,645; -195
18:29:16,648; -191
18:29:16,652; -192
18:29:16,656; -188
18:29:16,660; -191
18:29:16,664; -176
18:29:16,668; -169
18:29:16,672; -184
18:29:16,676; -174
18:29:16,680; -180
18:29:16,684; -169
18:29:16,688; -169
18:29:16,691; -158
18:29:16,695; -152
18:29:16,699; -140
18:29:16,703; -164
18:29:16,707; -157
18:29:16,711; -163
18:29:16,715; -154
18:29:16,719; -164
18:29:16,723; -155
18:29:16,727; -153
18:29:16,730; -139
18:29:16,734; -173
18:29:16,738; -160
18:29:16,742; -166
18:29:16,746; -173
18:29:16,750; -182
18:29:16,754; -194
18:29:16,758; -183
18:29:16,762; -183
18:29:16,766; -198
18:29:16,770; -197
18:29:16,773; -198
18:29:16,777; -201
18:29:16,781; -206
18:29:16,785; -214
18:29:16,789; -206
18:29:16,793; -200
18:29:16,797; -217
18:29:16,801; -217
18:29:16,805; -227
18:29:16,809; -222
18:29:16,812; -228
18:29:16,816; -225
18:29:16,820; -213
18:29:16,824; -218
18:29:16,828; -227
18:29:16,832; -221
18:29:16,836; -227
18:29:16,840; -232
18:29:16,844; -224
18:29:16,848; -233
18:29:16,852; -230
18:29:16,855; -217
18:29:16,859; -239
18:29:16,863; -238
18:29:16,867; -230
18:29:16,871; -241
18:29:16,875; -249
18:29:16,879; -245
18:29:16,883; -237
18:29:16,887; -233
18:29:16,891; -243
18:29:16,895; -227
18:29:16,898; -233
18:29:16,902; -235
18:29:16,906; -240
18:29:16,910; -246
18:29:16,914; -238
18:29:16,918; -240
18:29:16,922; -247
18:29:16,926; -235
18:29:16,930; -242
18:29:16,934; -243
18:29:16,938; -246
18:29:16,941; -238
18:29:16,945; -239
18:29:16,949; -222
18:29:16,953; -236
18:29:16,957; -228
18:29:16,961; -248
18:29:16,965; -226
18:29:16,969; -245
18:29:16,973; -244
18:29:16,977; -227
18:29:16,980; -236
18:29:16,984; -239
18:29:16,988; -227
18:29:16,992; -242
18:29:16,996; -237
18:29:17,000; -231
18:29:17,004; -233
18:29:17,008; -226
18:29:17,012; -206
18:29:17,016; -210
18:29:17,020; -197
18:29:17,023; -190
18:29:17,027; -176
18:29:17,031; -167
18:29:17,035; -144
18:29:17,039; -131
18:29:17,043; -99
18:29:17,047; -103
18:29:17,051; -106
18:29:17,055; -88
18:29:17,059; -116
18:29:17,062; -127
18:29:17,066; -142
18:29:17,070; -153
18:29:17,074; -142
18:29:17,078; -178
18:29:17,082; -156
18:29:17,086; -179
18:29:17,090; -188
18:29:17,094; -220
18:29:17,098; -229
18:29:17,102; -254
18:29:17,105; -233
18:29:17,109; -254
18:29:17,113; -258
18:29:17,117; -235
18:29:17,121; -248
18:29:17,125; -254
18:29:17,129; -240
18:29:17,133; -252
18:29:17,137; -224
18:29:17,141; -246
18:29:17,145; -235
18:29:17,148; -244
18:29:17,152; -268
18:29:17,156; -256
18:29:17,160; -218
18:29:17,164; -105
18:29:17,168; 116
18:29:17,172; 502
18:29:17,176; 1117
18:29:17,180; 1676
18:29:17,184; 2118
18:29:17,188; 2356
18:29:17,191; 2329
18:29:17,195; 1779
18:29:17,199; 1031
18:29:17,203; 417
18:29:17,207; -212
18:29:17,211; -264
18:29:17,215; -275
18:29:17,219; -159
18:29:17,223; -116
18:29:17,227; -19
18:29:17,230; -128
18:29:17,234; -212
18:29:17,238; -243
18:29:17,242; -188
18:29:17,246; -167
18:29:17,250; -206
18:29:17,254; -217
18:29:17,258; -232
18:29:17,262; -180
18:29:17,266; -188
18:29:17,270; -193
18:29:17,273; -208
18:29:17,277; -212
18:29:17,281; -177
18:29:17,285; -178
18:29:17,289; -170
18:29:17,293; -171
18:29:17,297; -182
18:29:17,301; -161
18:29:17,305; -156
18:29:17,309; -151
18:29:17,312; -163
18:29:17,316; -142
18:29:17,320; -127
18:29:17,324; -128
18:29:17,328; -136
18:29:17,332; -117
18:29:17,336; -109
18:29:17,340; -113
18:29:17,344; -111
18:29:17,348; -84
18:29:17,352; -78
18:29:17,355; -47
18:29:17,359; -69
18:29:17,363; -40
18:29:17,367; -22
18:29:17,371; -26
18:29:17,375; 12
18:29:17,379; 33
18:29:17,383; 49
18:29:17,387; 97
18:29:17,391; 99
18:29:17,395; 159
18:29:17,398; 179
18:29:17,402; 211
18:29:17,406; 267
18:29:17,410; 295
18:29:17,414; 325
18:29:17,418; 370
18:29:17,422; 386
18:29:17,426; 437
18:29:17,430; 456
18:29:17,434; 469
18:29:17,437; 510
18:29:17,441; 514
18:29:17,445; 514
18:29:17,449; 509
18:29:17,453; 477
18:29:17,457; 452
18:29:17,461; 388
18:29:17,465; 330
18:29:17,469; 271
18:29:17,473; 218
18:29:17,477; 164
18:29:17,480; 129
18:29:17,484; 67
18:29:17,488; 45
18:29:17,492; -9
18:29:17,496; -27
18:29:17,500; -58
18:29:17,504; -76
18:29:17,508; -103
18:29:17,512; -99
18:29:17,516; -131
18:29:17,520; -137
18:29:17,523; -155
18:29:17,527; -145
18:29:17,531; -175
18:29:17,535; -163
18:29:17,539; -161
18:29:17,543; -159
18:29:17,547; -176
18:29:17,551; -161
18:29:17,555; -167
18:29:17,559; -169
18:29:17,563; -165
18:29:17,566; -160
18:29:17,570; -154
18:29:17,574; -140
18:29:17,578; -154
18:29:17,582; -144
18:29:17,586; -149
18:29:17,590; -151
18:29:17,594; -148
18:29:17,598; -144
18:29:17,602; -135
18:29:17,605; -128
18:29:17,609; -133
18:29:17,613; -136
18:29:17,617; -138
18:29:17,621; -140
18:29:17,625; -137
18:29:17,629; -142
18:29:17,633; -132
18:29:17,637; -127
18:29:17,641; -152
18:29:17,645; -145
18:29:17,648; -153
18:29:17,652; -156
18:29:17,656; -156
18:29:17,660; -160
18:29:17,664; -164
18:29:17,668; -164
18:29:17,672; -178
18:29:17,676; -176
18:29:17,680; -171
18:29:17,684; -185
18:29:17,688; -176
18:29:17,691; -192
18:29:17,695; -185
18:29:17,699; -192
18:29:17,703; -193
18:29:17,707; -193
18:29:17,711; -188
18:29:17,715; -197
18:29:17,719; -208
18:29:17,723; -197
18:29:17,727; -209
18:29:17,730; -205
18:29:17,734; -221
18:29:17,738; -221
18:29:17,742; -196
18:29:17,746; -216
18:29:17,750; -220
18:29:17,754; -193
18:29:17,758; -213
18:29:17,762; -212
18:29:17,766; -221
18:29:17,770; -219
18:29:17,773; -221
18:29:17,777; -226
18:29:17,781; -231
18:29:17,785; -227
18:29:17,789; -220
18:29:17,793; -220
18:29:17,797; -226
18:29:17,801; -224
18:29:17,805; -218
18:29:17,809; -226
18:29:17,812; -227
18:29:17,816; -213
18:29:17,820; -232
18:29:17,824; -210
18:29:17,828; -232
18:29:17,832; -233
18:29:17,836; -216
18:29:17,840; -234
18:29:17,844; -225
18:29:17,848; -216
18:29:17,852; -227
18:29:17,855; -202
18:29:17,859; -225
18:29:17,863; -223
18:29:17,867; -212
18:29:17,871; -222
18:29:17,875; -205
18:29:17,879; -183
18:29:17,883; -171
18:29:17,887; -139
18:29:17,891; -146
18:29:17,895; -120
18:29:17,898; -118
18:29:17,902; -99
18:29:17,906; -89
18:29:17,910; -57
18:29:17,914; -80
18:29:17,918; -67
18:29:17,922; -111
18:29:17,926; -117
18:29:17,930; -133
18:29:17,934; -149
18:29:17,938; -151
18:29:17,941; -159
18:29:17,945; -161
18:29:17,949; -172
18:29:17,953; -204
18:29:17,957; -223
18:29:17,961; -218
18:29:17,965; -242
18:29:17,969; -252
18:29:17,973; -235
18:29:17,977; -240
18:29:17,980; -221
18:29:17,984; -243
18:29:17,988; -234
18:29:17,992; -230
18:29:17,996; -229
18:29:18,000; -227
18:29:18,004; -225
18:29:18,008; -224
18:29:18,012; -235
18:29:18,016; -277
18:29:18,020; -222
18:29:18,023; -167
18:29:18,027; -26
18:29:18,031; 254
18:29:18,035; 747
18:29:18,039; 1317
18:29:18,043; 1889
18:29:18,047; 2243
18:29:18,051; 2389
18:29:18,055; 2207
18:29:18,059; 1682
18:29:18,062; 742
18:29:18,066; 98
18:29:18,070; -180
18:29:18,074; -304
18:29:18,078; -434
18:29:18,082; -59
18:29:18,086; -65
18:29:18,090; -105
18:29:18,094; -204
18:29:18,098; -207
18:29:18,102; -188
18:29:18,105; -198
18:29:18,109; -180
18:29:18,113; -214
18:29:18,117; -228
18:29:18,121; -241
18:29:18,125; -201
18:29:18,129; -135
18:29:18,133; -179
18:29:18,137; -198
18:29:18,141; -179
18:29:18,145; -162
18:29:18,148; -160
18:29:18,152; -178
18:29:18,156; -171
18:29:18,160; -159
18:29:18,164; -156
18:29:18,168; -150
18:29:18,172; -150
18:29:18,176; -132
18:29:18,180; -154
18:29:18,184; -143
18:29:18,188; -133
18:29:18,191; -131
18:29:18,195; -103
18:29:18,199; -104
18:29:18,203; -102
18:29:18,207; -84
18:29:18,211; -82
18:29:18,215; -72
18:29:18,219; -67
18:29:18,223; -49
18:29:18,227; -34
18:29:18,230; -1
18:29:18,234; 3
18:29:18,238; 35
18:29:18,242; 45
18:29:18,246; 80
18:29:18,250; 105
18:29:18,254; 136
18:29:18,258; 181
18:29:18,262; 219
18:29:18,266; 252
18:29:18,270; 277
18:29:18,273; 339
18:29:18,277; 367
18:29:18,281; 386
18:29:18,285; 430
18:29:18,289; 461
18:29:18,293; 483
18:29:18,297; 492
18:29:18,301; 521
18:29:18,305; 524
18:29:18,309; 531
18:29:18,312; 494
18:29:18,316; 462
18:29:18,320; 434
18:29:18,324; 387
18:29:18,328; 308
18:29:18,332; 264
18:29:18,336; 192
18:29:18,340; 137
18:29:18,344; 86
18:29:18,348; 48
18:29:18,352; -2
18:29:18,355; -8
18:29:18,359; -56
18:29:18,363; -78
18:29:18,367; -99
18:29:18,371; -118
18:29:18,375; -123
18:29:18,379; -138
18:29:18,383; -143
18:29:18,387; -141
18:29:18,391; -171
18:29:18,395; -155
18:29:18,398; -166
18:29:18,402; -178
18:29:18,406; -174
18:29:18,410; -172
18:29:18,414; -171
18:29:18,418; -171
18:29:18,422; -173
18:29:18,426; -158
18:29:18,430; -179
18:29:18,434; -161
18:29:18,438; -146
18:29:18,441; -135
18:29:18,445; -137
18:29:18,449; -139
18:29:18,453; -148
18:29:18,457; -142
18:29:18,461; -145
18:29:18,465; -145
18:29:18,469; -132
18:29:18,473; -130
18:29:18,477; -140
18:29:18,480; -131
18:29:18,484; -151
18:29:18,488; -138
18:29:18,492; -132
18:29:18,496; -142
18:29:18,500; -133
18:29:18,504; -146
18:29:18,508; -152
18:29:18,512; -150
18:29:18,516; -171
18:29:18,520; -174
18:29:18,523; -167
18:29:18,527; -177
18:29:18,531; -175
18:29:18,535; -173
18:29:18,539; -193
18:29:18,543; -176
18:29:18,547; -198
18:29:18,551; -208
18:29:18,555; -192
18:29:18,559; -210
18:29:18,562; -203
18:29:18,566; -196
18:29:18,570; -202
18:29:18,574; -200
18:29:18,578; -217
18:29:18,582; -212
18:29:18,586; -218
18:29:18,590; -230
18:29:18,594; -212
18:29:18,598; -223
18:29:18,602; -196
18:29:18,605; -176
18:29:18,609; -192
18:29:18,613; -141
18:29:18,617; -150
18:29:18,621; -144
18:29:18,625; -130
18:29:18,629; -126
18:29:18,633; -102
18:29:18,637; -78
18:29:18,641; -85
18:29:18,645; -61
18:29:18,648; -81
18:29:18,652; -91
18:29:18,656; -103
18:29:18,660; -123
18:29:18,664; -132
18:29:18,668; -119
18:29:18,672; -155
18:29:18,676; -159
18:29:18,680; -163
18:29:18,684; -206
18:29:18,688; -212
18:29:18,691; -255
18:29:18,695; -261
18:29:18,699; -247
18:29:18,703; -274
18:29:18,707; -259
18:29:18,711; -264
18:29:18,715; -253
18:29:18,719; -264
18:29:18,723; -259
18:29:18,727; -258
18:29:18,730; -245
18:29:18,734; -262
18:29:18,738; -256
18:29:18,742; -263
18:29:18,746; -263
18:29:18,750; -283
18:29:18,754; -292
18:29:18,758; -257
18:29:18,762; -224
18:29:18,766; -43
18:29:18,770; 365
18:29:18,773; 981
18:29:18,777; 1574
18:29:18,781; 2183
18:29:18,785; 2399
18:29:18,789; 2389
18:29:18,793; 2063
18:29:18,797; 1270
18:29:18,801; 462
18:29:18,805; -146
18:29:18,809; -268
18:29:18,812; -519
18:29:18,816; -381
18:29:18,820; -200
18:29:18,824; -108
18:29:18,828; -200
18:29:18,832; -267
18:29:18,836; -223
18:29:18,840; -191
18:29:18,844; -220
18:29:18,848; -164
18:29:18,852; -256
18:29:18,855; -228
18:29:18,859; -232
18:29:18,863; -222
18:29:18,867; -184
18:29:18,871; -215
18:29:18,875; -217
18:29:18,879; -226
18:29:18,883; -189
18:29:18,887; -181
18:29:18,891; -197
18:29:18,895; -192
18:29:18,898; -186
18:29:18,902; -177
18:29:18,906; -165
18:29:18,910; -169
18:29:18,914; -156
18:29:18,918; -155
18:29:18,922; -150
18:29:18,926; -161
18:29:18,930; -139
18:29:18,934; -130
18:29:18,938; -133
18:29:18,941; -119
18:29:18,945; -89
18:29:18,949; -81
18:29:18,953; -73
18:29:18,957; -59
18:29:18,961; -58
18:29:18,965; -23
18:29:18,969; -32
18:29:18,973; 19
18:29:18,977; 39
18:29:18,980; 79
18:29:18,984; 95
18:29:18,988; 129
18:29:18,992; 172
18:29:18,996; 197
18:29:19,000; 231
18:29:19,004; 274
18:29:19,008; 317
18:29:19,012; 359
18:29:19,016; 381
18:29:19,020; 416
18:29:19,023; 452
18:29:19,027; 482
18:29:19,031; 502
18:29:19,035; 518
18:29:19,039; 526
18:29:19,043; 528
18:29:19,047; 495
18:29:19,051; 452
18:29:19,055; 403
18:29:19,059; 343
18:29:19,062; 269
18:29:19,066; 214
18:29:19,070; 132
18:29:19,074; 123
18:29:19,078; 54
18:29:19,082; 16
18:29:19,086; -19
18:29:19,090; -45
18:29:19,094; -95
18:29:19,098; -112
18:29:19,102; -134
18:29:19,105; -138
18:29:19,109; -173
18:29:19,113; -176
18:29:19,117; -184
18:29:19,121; -179
18:29:19,125; -193
18:29:19,129; -183
18:29:19,133; -214
18:29:19,137; -192
18:29:19,141; -218
18:29:19,145; -210
18:29:19,148; -215
18:29:19,152; -197
18:29:19,156; -191
18:29:19,160; -201
18:29:19,164; -187
18:29:19,168; -170
18:29:19,172; -203
18:29:19,176; -183
18:29:19,180; -173
18:29:19,184; -180
18:29:19,188; -179
18:29:19,191; -176
18:29:19,195; -168
18:29:19,199; -161
18:29:19,203; -173
18:29:19,207; -162
18:29:19,211; -163
18:29:19,215; -166
18:29:19,219; -176
18:29:19,223; -164
18:29:19,227; -166
18:29:19,230; -156
18:29:19,234; -163
18:29:19,238; -173
18:29:19,242; -186
18:29:19,246; -182
18:29:19,250; -200
18:29:19,254; -187
18:29:19,258; -190
18:29:19,262; -176
18:29:19,266; -211
18:29:19,270; -193
18:29:19,273; -202
18:29:19,277; -203
18:29:19,281; -176
18:29:19,285; -153
18:29:19,289; -146
18:29:19,293; -129
18:29:19,297; -147
18:29:19,301; -132
18:29:19,305; -135
18:29:19,309; -105
18:29:19,313; -98
18:29:19,316; -80
18:29:19,320; -78
18:29:19,324; -97
18:29:19,328; -127
18:29:19,332; -141
18:29:19,336; -154
18:29:19,340; -159
18:29:19,344; -157
18:29:19,348; -190
18:29:19,352; -194
18:29:19,355; -202
18:29:19,359; -257
18:29:19,363; -281
18:29:19,367; -274
18:29:19,371; -301
18:29:19,375; -296
18:29:19,379; -300
18:29:19,383; -297
18:29:19,387; -284
18:29:19,391; -317
18:29:19,395; -306
18:29:19,398; -304
18:29:19,402; -301
18:29:19,406; -305
18:29:19,410; -290
18:29:19,414; -280
18:29:19,418; -280
18:29:19,422; -314
18:29:19,426; -340
18:29:19,430; -337
18:29:19,434; -263
18:29:19,438; -185
18:29:19,441; 12
18:29:19,445; 495
18:29:19,449; 1280
18:29:19,453; 1867
18:29:19,457; 2184
18:29:19,461; 2494
18:29:19,465; 2273
18:29:19,469; 1575
18:29:19,473; 784
18:29:19,477; -7
18:29:19,480; -291
18:29:19,484; -486
18:29:19,488; -481
18:29:19,492; -253
18:29:19,496; -162
18:29:19,500; -95
18:29:19,504; -265
18:29:19,508; -268
18:29:19,512; -282
18:29:19,516; -252
18:29:19,520; -208
18:29:19,523; -233
18:29:19,527; -291
18:29:19,531; -282
18:29:19,535; -274
18:29:19,539; -265
18:29:19,543; -204
18:29:19,547; -239
18:29:19,551; -269
18:29:19,555; -211
18:29:19,559; -238
18:29:19,562; -247
18:29:19,566; -214
18:29:19,570; -226
18:29:19,574; -196
18:29:19,578; -224
18:29:19,582; -210
18:29:19,586; -207
18:29:19,590; -207
18:29:19,594; -195
18:29:19,598; -186
18:29:19,602; -176
18:29:19,605; -147
18:29:19,609; -163
18:29:19,613; -152
18:29:19,617; -148
18:29:19,621; -135
18:29:19,625; -141
18:29:19,629; -117
18:29:19,633; -76
18:29:19,637; -66
18:29:19,641; -36
18:29:19,645; -37
18:29:19,648; -4
18:29:19,652; 1
18:29:19,656; 31
18:29:19,660; 83
18:29:19,664; 114
18:29:19,668; 175
18:29:19,672; 196
18:29:19,676; 231
18:29:19,680; 275
18:29:19,684; 305
18:29:19,688; 330
18:29:19,691; 363
18:29:19,695; 399
18:29:19,699; 415
18:29:19,703; 444
18:29:19,707; 461
18:29:19,711; 456
18:29:19,715; 467
18:29:19,719; 428
18:29:19,723; 374
18:29:19,727; 340
18:29:19,730; 291
18:29:19,734; 211
18:29:19,738; 148
18:29:19,742; 81
18:29:19,746; 41
18:29:19,750; -12
18:29:19,754; -43
18:29:19,758; -78
18:29:19,762; -101
18:29:19,766; -139
18:29:19,770; -173
18:29:19,773; -174
18:29:19,777; -204
18:29:19,781; -200
18:29:19,785; -200
18:29:19,789; -234
18:29:19,793; -225
18:29:19,797; -263
18:29:19,801; -248
18:29:19,805; -250
18:29:19,809; -264
18:29:19,812; -253
18:29:19,816; -249
18:29:19,820; -247
18:29:19,824; -242
18:29:19,828; -263
18:29:19,832; -243
18:29:19,836; -239
18:29:19,840; -235
18:29:19,844; -228
18:29:19,848; -216
18:29:19,852; -232
18:29:19,855; -220
18:29:19,859; -237
18:29:19,863; -229
18:29:19,867; -216
18:29:19,871; -198
18:29:19,875; -207
18:29:19,879; -204
18:29:19,883; -201
18:29:19,887; -190
18:29:19,891; -229
18:29:19,895; -194
18:29:19,898; -213
18:29:19,902; -218
18:29:19,906; -221
18:29:19,910; -232
18:29:19,914; -227
18:29:19,918; -215
18:29:19,922; -239
18:29:19,926; -222
18:29:19,930; -228
18:29:19,934; -240
18:29:19,938; -243
18:29:19,941; -237
18:29:19,945; -240
18:29:19,949; -239
18:29:19,953; -259
18:29:19,957; -232
18:29:19,961; -216
18:29:19,965; -198
18:29:19,969; -184
18:29:19,973; -161
18:29:19,977; -164
18:29:19,980; -155
18:29:19,984; -173
18:29:19,988; -151
18:29:19,992; -145
18:29:19,996; -138
18:29:20,000; -142
18:29:20,004; -145
18:29:20,008; -162
18:29:20,012; -175
18:29:20,016; -206
18:29:20,020; -190
18:29:20,023; -238
18:29:20,027; -229
18:29:20,031; -249
18:29:20,035; -291
18:29:20,039; -301
18:29:20,043; -323
18:29:20,047; -322
18:29:20,051; -317
18:29:20,055; -319
18:29:20,059; -335
18:29:20,062; -324
18:29:20,066; -336
18:29:20,070; -347
18:29:20,074; -322
18:29:20,078; -334
18:29:20,082; -308
18:29:20,086; -319
18:29:20,090; -321
18:29:20,094; -315
18:29:20,098; -336
18:29:20,102; -367
18:29:20,105; -336
18:29:20,109; -294
18:29:20,113; -147
18:29:20,117; 80
18:29:20,121; 536
18:29:20,125; 1286
18:29:20,129; 1871
18:29:20,133; 2210
18:29:20,137; 2533
18:29:20,141; 2306
18:29:20,145; 1731
18:29:20,148; 858
18:29:20,152; 268
18:29:20,156; -418
18:29:20,160; -359
18:29:20,164; -475
18:29:20,168; -289
18:29:20,172; -147
18:29:20,176; -130
18:29:20,180; -183
18:29:20,184; -271
18:29:20,188; -403
18:29:20,191; -317
18:29:20,195; -256
18:29:20,199; -310
18:29:20,203; -334
18:29:20,207; -327
18:29:20,211; -283
18:29:20,215; -298
18:29:20,219; -281
18:29:20,223; -309
18:29:20,227; -267
18:29:20,230; -266
18:29:20,234; -286
18:29:20,238; -304
18:29:20,242; -268
18:29:20,246; -270
18:29:20,250; -267
18:29:20,254; -247
18:29:20,258; -244
18:29:20,262; -247
18:29:20,266; -268
18:29:20,270; -251
18:29:20,273; -243
18:29:20,277; -245
18:29:20,281; -221
18:29:20,285; -208
18:29:20,289; -194
18:29:20,293; -171
18:29:20,297; -185
18:29:20,301; -167
18:29:20,305; -154
18:29:20,309; -134
18:29:20,312; -118
18:29:20,316; -101
18:29:20,320; -89
18:29:20,324; -47
18:29:20,328; -40
18:29:20,332; -10
18:29:20,336; 36
18:29:20,340; 66
18:29:20,344; 113
18:29:20,348; 144
18:29:20,352; 175
18:29:20,355; 212
18:29:20,359; 234
18:29:20,363; 275
18:29:20,367; 297
18:29:20,371; 347
18:29:20,375; 370
18:29:20,379; 404
18:29:20,383; 412
18:29:20,387; 438
18:29:20,391; 393
18:29:20,395; 367
18:29:20,398; 322
18:29:20,402; 245
18:29:20,406; 196
18:29:20,410; 128
18:29:20,414; 93
18:29:20,418; 50
18:29:20,422; -20
18:29:20,426; -46
18:29:20,430; -119
18:29:20,434; -152
18:29:20,438; -166
18:29:20,441; -194
18:29:20,445; -221
18:29:20,449; -223
18:29:20,453; -244
18:29:20,457; -269
18:29:20,461; -287
18:29:20,465; -281
18:29:20,469; -292
18:29:20,473; -301
18:29:20,477; -308
18:29:20,480; -295
18:29:20,484; -308
18:29:20,488; -301
18:29:20,492; -297
18:29:20,496; -308
18:29:20,500; -301
18:29:20,504; -323
18:29:20,508; -308
18:29:20,512; -312
18:29:20,516; -316
18:29:20,520; -310
18:29:20,523; -314
18:29:20,527; -288
18:29:20,531; -293
18:29:20,535; -284
18:29:20,539; -281
18:29:20,543; -254
18:29:20,547; -269
18:29:20,551; -296
18:29:20,555; -268
18:29:20,559; -299
18:29:20,562; -270
18:29:20,566; -269
18:29:20,570; -302
18:29:20,574; -262
18:29:20,578; -311
18:29:20,582; -299
18:29:20,586; -291
18:29:20,590; -284
18:29:20,594; -268
18:29:20,598; -286
18:29:20,602; -309
18:29:20,605; -309
18:29:20,609; -339
18:29:20,613; -312
18:29:20,617; -312
18:29:20,621; -301
18:29:20,625; -318
18:29:20,629; -331
18:29:20,633; -331
18:29:20,637; -336
18:29:20,641; -349
18:29:20,645; -321
18:29:20,648; -343
18:29:20,652; -321
18:29:20,656; -338
18:29:20,660; -346
18:29:20,664; -357
18:29:20,668; -334
18:29:20,672; -351
18:29:20,676; -325
18:29:20,680; -309
18:29:20,684; -298
18:29:20,687; -287
18:29:20,691; -299
18:29:20,695; -252
18:29:20,699; -259
18:29:20,703; -274
18:29:20,707; -223
18:29:20,711; -236
18:29:20,715; -232
18:29:20,719; -214
18:29:20,723; -229
18:29:20,727; -229
18:29:20,730; -230
18:29:20,734; -280
18:29:20,738; -270
18:29:20,742; -299
18:29:20,746; -284
18:29:20,750; -315
18:29:20,754; -335
18:29:20,758; -359
18:29:20,762; -350
18:29:20,766; -392
18:29:20,770; -389
18:29:20,773; -394
18:29:20,777; -397
18:29:20,781; -397
18:29:20,785; -403
18:29:20,789; -400
18:29:20,793; -380
18:29:20,797; -389
18:29:20,801; -389
18:29:20,805; -401
18:29:20,809; -413
18:29:20,813; -413
18:29:20,816; -408
18:29:20,820; -404
18:29:20,824; -427
18:29:20,828; -426
18:29:20,832; -378
18:29:20,836; -310
18:29:20,840; -184
18:29:20,844; 161
18:29:20,848; 956
18:29:20,852; 1559
18:29:20,855; 2069
18:29:20,859; 2394
18:29:20,863; 2398
18:29:20,867; 1965
18:29:20,871; 1148
18:29:20,875; 414
18:29:20,879; -189
18:29:20,883; -355
18:29:20,887; -487
18:29:20,891; -488
18:29:20,895; -222
18:29:20,898; -239
18:29:20,902; -271
18:29:20,906; -413
18:29:20,910; -432
18:29:20,914; -330
18:29:20,918; -363
18:29:20,922; -355
18:29:20,926; -356
18:29:20,930; -376
18:29:20,934; -411
18:29:20,938; -374
18:29:20,941; -358
18:29:20,945; -373
18:29:20,949; -361
18:29:20,953; -360
18:29:20,957; -367
18:29:20,961; -370
18:29:20,965; -350
18:29:20,969; -368
18:29:20,973; -343
18:29:20,977; -337
18:29:20,980; -319
18:29:20,984; -336
18:29:20,988; -350
18:29:20,992; -321
18:29:20,996; -322
18:29:21,000; -312
18:29:21,004; -300
18:29:21,008; -300
18:29:21,012; -272
18:29:21,016; -283
18:29:21,020; -273
18:29:21,023; -262
18:29:21,027; -251
18:29:21,031; -239
18:29:21,035; -231
18:29:21,039; -195
18:29:21,043; -149
18:29:21,047; -158
18:29:21,051; -133
18:29:21,055; -77
18:29:21,059; -69
18:29:21,062; -19
18:29:21,066; 22
18:29:21,070; 43
18:29:21,074; 108
18:29:21,078; 91
18:29:21,082; 158
18:29:21,086; 189
18:29:21,090; 221
18:29:21,094; 278
18:29:21,098; 280
18:29:21,102; 311
18:29:21,105; 353
18:29:21,109; 313
18:29:21,113; 321
18:29:21,117; 307
18:29:21,121; 276
18:29:21,125; 238
18:29:21,129; 171
18:29:21,133; 94
18:29:21,137; 35
18:29:21,141; -51
18:29:21,145; -85
18:29:21,148; -157
18:29:21,152; -159
18:29:21,156; -212
18:29:21,160; -233
18:29:21,164; -272
18:29:21,168; -280
18:29:21,172; -325
18:29:21,176; -319
18:29:21,180; -335
18:29:21,184; -351
18:29:21,188; -346
18:29:21,191; -372
18:29:21,195; -378
18:29:21,199; -355
18:29:21,203; -404
18:29:21,207; -379
18:29:21,211; -393
18:29:21,215; -392
18:29:21,219; -375
18:29:21,223; -379
18:29:21,227; -390
18:29:21,230; -362
18:29:21,234; -384
18:29:21,238; -394
18:29:21,242; -404
18:29:21,246; -385
18:29:21,250; -389
18:29:21,254; -388
18:29:21,258; -365
18:29:21,262; -356
18:29:21,266; -362
18:29:21,270; -370
18:29:21,273; -360
18:29:21,277; -385
18:29:21,281; -374
18:29:21,285; -374
18:29:21,289; -359
18:29:21,293; -344
18:29:21,297; -377
18:29:21,301; -366
18:29:21,305; -371
18:29:21,309; -371
18:29:21,312; -372
18:29:21,316; -364
18:29:21,320; -362
18:29:21,324; -362
18:29:21,328; -403
18:29:21,332; -386
18:29:21,336; -401
18:29:21,340; -376
18:29:21,344; -374
18:29:21,348; -392
18:29:21,352; -398
18:29:21,355; -395
18:29:21,359; -425
18:29:21,363; -418
18:29:21,367; -425
18:29:21,371; -423
18:29:21,375; -423
18:29:21,379; -431
18:29:21,383; -437
18:29:21,387; -425
18:29:21,391; -431
18:29:21,395; -436
18:29:21,398; -446
18:29:21,402; -443
18:29:21,406; -446
18:29:21,410; -459
18:29:21,414; -441
18:29:21,418; -429
18:29:21,422; -464
18:29:21,426; -436
18:29:21,430; -461
18:29:21,434; -444
18:29:21,438; -443
18:29:21,441; -472
18:29:21,445; -437
18:29:21,449; -447
18:29:21,453; -451
18:29:21,457; -449
18:29:21,461; -445
18:29:21,465; -451
18:29:21,469; -464
18:29:21,473; -457
18:29:21,477; -446
18:29:21,480; -443
18:29:21,484; -448
18:29:21,488; -433
18:29:21,492; -451
18:29:21,496; -456
18:29:21,500; -450
18:29:21,504; -454
18:29:21,508; -436
18:29:21,512; -425
18:29:21,516; -415
18:29:21,520; -402
18:29:21,523; -379
18:29:21,527; -373
18:29:21,531; -355
18:29:21,535; -339
18:29:21,539; -331
18:29:21,543; -300
18:29:21,547; -324
18:29:21,551; -309
18:29:21,555; -310
18:29:21,559; -326
18:29:21,562; -326
18:29:21,566; -320
18:29:21,570; -346
18:29:21,574; -339
18:29:21,578; -362
18:29:21,582; -375
18:29:21,586; -362
18:29:21,590; -397
18:29:21,594; -401
18:29:21,598; -431
18:29:21,602; -448
18:29:21,605; -452
18:29:21,609; -478
18:29:21,613; -468
18:29:21,617; -471
18:29:21,621; -464
18:29:21,625; -468
18:29:21,629; -482
18:29:21,633; -461
18:29:21,637; -452
18:29:21,641; -467
18:29:21,645; -464
18:29:21,648; -463
18:29:21,652; -463
18:29:21,656; -496
18:29:21,660; -501
18:29:21,664; -462
18:29:21,668; -374
18:29:21,672; -215
18:29:21,676; 39
18:29:21,680; 510
18:29:21,684; 1250
18:29:21,688; 1821
18:29:21,691; 2158
18:29:21,695; 2326
18:29:21,699; 2272
18:29:21,703; 1496
18:29:21,707; 701
18:29:21,711; -40
18:29:21,715; -474
18:29:21,719; -501
18:29:21,723; -594
18:29:21,727; -367
18:29:21,730; -213
18:29:21,734; -221
18:29:21,738; -400
18:29:21,742; -469
18:29:21,746; -432
18:29:21,750; -462
18:29:21,754; -351
18:29:21,758; -437
18:29:21,762; -416
18:29:21,766; -464
18:29:21,770; -424
18:29:21,773; -403
18:29:21,777; -406
18:29:21,781; -439
18:29:21,785; -399
18:29:21,789; -414
18:29:21,793; -384
18:29:21,797; -404
18:29:21,801; -385
18:29:21,805; -381
18:29:21,809; -401
18:29:21,812; -396
18:29:21,816; -405
18:29:21,820; -388
18:29:21,824; -364
18:29:21,828; -377
18:29:21,832; -364
18:29:21,836; -348
18:29:21,840; -348
18:29:21,844; -353
18:29:21,848; -333
18:29:21,852; -332
18:29:21,855; -296
18:29:21,859; -297
18:29:21,863; -280
18:29:21,867; -253
18:29:21,871; -235
18:29:21,875; -219
18:29:21,879; -204
18:29:21,883; -174
18:29:21,887; -140
18:29:21,891; -148
18:29:21,895; -86
18:29:21,898; -72
18:29:21,902; -33
18:29:21,906; 5
18:29:21,910; 50
18:29:21,914; 80
18:29:21,918; 139
18:29:21,922; 163
18:29:21,926; 192
18:29:21,930; 220
18:29:21,934; 253
18:29:21,938; 267
18:29:21,941; 279
18:29:21,945; 296
18:29:21,949; 318
18:29:21,953; 275
18:29:21,957; 238
18:29:21,961; 197
18:29:21,965; 149
18:29:21,969; 75
18:29:21,973; 32
18:29:21,977; -33
18:29:21,980; -58
18:29:21,984; -133
18:29:21,988; -167
18:29:21,992; -209
18:29:21,996; -245
18:29:22,000; -288
18:29:22,004; -302
18:29:22,008; -330
18:29:22,012; -335
18:29:22,016; -359
18:29:22,020; -343
18:29:22,023; -368
18:29:22,027; -372
18:29:22,031; -377
18:29:22,035; -368
18:29:22,039; -390
18:29:22,043; -373
18:29:22,047; -390
18:29:22,051; -386
18:29:22,055; -395
18:29:22,059; -401
18:29:22,062; -392
18:29:22,066; -401
18:29:22,070; -384
18:29:22,074; -372
18:29:22,078; -381
18:29:22,082; -367
18:29:22,086; -368
18:29:22,090; -373
18:29:22,094; -367
18:29:22,098; -371
18:29:22,102; -352
18:29:22,105; -358
18:29:22,109; -355
18:29:22,113; -350
18:29:22,117; -344
18:29:22,121; -353
18:29:22,125; -353
18:29:22,129; -351
18:29:22,133; -342
18:29:22,137; -339
18:29:22,141; -358
18:29:22,145; -337
18:29:22,148; -348
18:29:22,152; -338
18:29:22,156; -351
18:29:22,160; -347
18:29:22,164; -338
18:29:22,168; -345
18:29:22,172; -368
18:29:22,176; -365
18:29:22,180; -366
18:29:22,184; -384
18:29:22,187; -372
18:29:22,191; -372
18:29:22,195; -373
18:29:22,199; -370
18:29:22,203; -387
18:29:22,207; -381
18:29:22,211; -393
18:29:22,215; -394
18:29:22,219; -392
18:29:22,223; -380
18:29:22,227; -401
18:29:22,230; -383
18:29:22,234; -403
18:29:22,238; -402
18:29:22,242; -404
18:29:22,246; -391
18:29:22,250; -422
18:29:22,254; -389
18:29:22,258; -409
18:29:22,262; -399
18:29:22,266; -419
18:29:22,270; -420
18:29:22,273; -415
18:29:22,277; -410
18:29:22,281; -414
18:29:22,285; -404
18:29:22,289; -413
18:29:22,293; -392
18:29:22,297; -418
18:29:22,301; -411
18:29:22,305; -397
18:29:22,309; -397
18:29:22,313; -413
18:29:22,316; -403
18:29:22,320; -402
18:29:22,324; -401
18:29:22,328; -402
18:29:22,332; -411
18:29:22,336; -395
18:29:22,340; -397
18:29:22,344; -414
18:29:22,348; -403
18:29:22,352; -403
18:29:22,355; -402
18:29:22,359; -416
18:29:22,363; -413
18:29:22,367; -403
18:29:22,371; -407
18:29:22,375; -407
18:29:22,379; -399
18:29:22,383; -404
18:29:22,387; -401
18:29:22,391; -422
18:29:22,395; -405
18:29:22,398; -417
18:29:22,402; -405
18:29:22,406; -411
18:29:22,410; -406
18:29:22,414; -406
18:29:22,418; -397
18:29:22,422; -403
18:29:22,426; -398
18:29:22,430; -400
18:29:22,434; -398
18:29:22,438; -392
18:29:22,441; -394
18:29:22,445; -396
18:29:22,449; -392
18:29:22,453; -404
18:29:22,457; -416
18:29:22,461; -401
18:29:22,465; -416
18:29:22,469; -396
18:29:22,473; -402
18:29:22,477; -401
18:29:22,480; -386
18:29:22,484; -408
18:29:22,488; -409
18:29:22,492; -397
18:29:22,496; -411
18:29:22,500; -392
18:29:22,504; -398
18:29:22,508; -405
18:29:22,512; -372
18:29:22,516; -410
18:29:22,520; -396
18:29:22,523; -398
18:29:22,527; -398
18:29:22,531; -401
18:29:22,535; -393
18:29:22,539; -404
18:29:22,543; -389
18:29:22,547; -400
18:29:22,551; -392
18:29:22,555; -390
18:29:22,559; -378
18:29:22,562; -378
18:29:22,566; -349
18:29:22,570; -348
18:29:22,574; -321
18:29:22,578; -321
18:29:22,582; -316
18:29:22,586; -296
18:29:22,590; -294
18:29:22,594; -273
18:29:22,598; -270
18:29:22,602; -273
18:29:22,605; -263
18:29:22,609; -302
18:29:22,613; -294
18:29:22,617; -309
18:29:22,621; -317
18:29:22,625; -324
18:29:22,629; -320
18:29:22,633; -328
18:29:22,637; -346
18:29:22,641; -378
18:29:22,645; -386
18:29:22,648; -414
18:29:22,652; -409
18:29:22,656; -410
18:29:22,660; -401
18:29:22,664; -404
18:29:22,668; -380
18:29:22,672; -402
18:29:22,676; -403
18:29:22,680; -408
18:29:22,684; -396
18:29:22,688; -399
18:29:22,691; -400
18:29:22,695; -402
18:29:22,699; -397
18:29:22,703; -448
18:29:22,707; -397
18:29:22,711; -323
18:29:22,715; -223
18:29:22,719; -49
18:29:22,723; 334
18:29:22,727; 1189
18:29:22,730; 1599
18:29:22,734; 2194
18:29:22,738; 2298
18:29:22,742; 2273
18:29:22,746; 1584
18:29:22,750; 845
18:29:22,754; -47
18:29:22,758; -295
18:29:22,762; -492
18:29:22,766; -525
18:29:22,770; -297
18:29:22,773; -188
18:29:22,777; -211
18:29:22,781; -262
18:29:22,785; -439
18:29:22,789; -356
18:29:22,793; -330
18:29:22,797; -331
18:29:22,801; -327
18:29:22,805; -358
18:29:22,809; -394
18:29:22,812; -367
18:29:22,816; -367
18:29:22,820; -324
18:29:22,824; -353
18:29:22,828; -360
18:29:22,832; -363
18:29:22,836; -329
18:29:22,840; -327
18:29:22,844; -322
18:29:22,848; -340
18:29:22,852; -321
18:29:22,855; -304
18:29:22,859; -318
18:29:22,863; -322
18:29:22,867; -311
18:29:22,871; -307
18:29:22,875; -315
18:29:22,879; -293
18:29:22,883; -266
18:29:22,887; -265
18:29:22,891; -282
18:29:22,895; -246
18:29:22,898; -264
18:29:22,902; -237
18:29:22,906; -241
18:29:22,910; -211
18:29:22,914; -192
18:29:22,918; -173
18:29:22,922; -159
18:29:22,926; -145
18:29:22,930; -117
18:29:22,934; -82
18:29:22,938; -78
18:29:22,941; -34
18:29:22,945; 19
18:29:22,949; 50
18:29:22,953; 67
18:29:22,957; 106
18:29:22,961; 145
18:29:22,965; 181
18:29:22,969; 212
18:29:22,973; 258
18:29:22,977; 268
18:29:22,980; 312
18:29:22,984; 315
18:29:22,988; 339
18:29:22,992; 363
18:29:22,996; 344
18:29:23,000; 345
18:29:23,004; 315
18:29:23,008; 262
18:29:23,012; 223
18:29:23,016; 146
18:29:23,020; 108
18:29:23,023; 45
18:29:23,027; -24
18:29:23,031; -71
18:29:23,035; -101
18:29:23,039; -143
18:29:23,043; -180
18:29:23,047; -233
18:29:23,051; -227
18:29:23,055; -262
18:29:23,059; -282
18:29:23,062; -290
18:29:23,066; -299
18:29:23,070; -323
18:29:23,074; -312
18:29:23,078; -342
18:29:23,082; -328
18:29:23,086; -335
18:29:23,090; -334
18:29:23,094; -346
18:29:23,098; -344
18:29:23,102; -341
18:29:23,105; -329
18:29:23,109; -330
18:29:23,113; -328
18:29:23,117; -328
18:29:23,121; -328
18:29:23,125; -327
18:29:23,129; -320
18:29:23,133; -315
18:29:23,137; -306
18:29:23,141; -312
18:29:23,145; -306
18:29:23,148; -301
18:29:23,152; -308
18:29:23,156; -300
18:29:23,160; -303
18:29:23,164; -304
18:29:23,168; -294
18:29:23,172; -309
18:29:23,176; -307
18:29:23,180; -298
18:29:23,184; -304
18:29:23,188; -315
18:29:23,191; -301
18:29:23,195; -316
18:29:23,199; -305
18:29:23,203; -328
18:29:23,207; -330
18:29:23,211; -333
18:29:23,215; -339
18:29:23,219; -334
18:29:23,223; -337
18:29:23,227; -331
18:29:23,230; -333
18:29:23,234; -357
18:29:23,238; -357
18:29:23,242; -359
18:29:23,246; -370
18:29:23,250; -376
18:29:23,254; -363
18:29:23,258; -373
18:29:23,262; -355
18:29:23,266; -373
18:29:23,270; -378
18:29:23,273; -362
18:29:23,277; -399
18:29:23,281; -380
18:29:23,285; -389
18:29:23,289; -385
18:29:23,293; -363
18:29:23,297; -386
18:29:23,301; -375
18:29:23,305; -391
18:29:23,309; -390
18:29:23,312; -392
18:29:23,316; -394
18:29:23,320; -384
18:29:23,324; -387
18:29:23,328; -402
18:29:23,332; -397
18:29:23,336; -397
18:29:23,340; -412
18:29:23,344; -397
18:29:23,348; -399
18:29:23,352; -396
18:29:23,355; -383
18:29:23,359; -412
18:29:23,363; -405
18:29:23,367; -404
18:29:23,371; -409
18:29:23,375; -402
18:29:23,379; -408
18:29:23,383; -406
18:29:23,387; -392
18:29:23,391; -417
18:29:23,395; -401
18:29:23,398; -409
18:29:23,402; -412
18:29:23,406; -415
18:29:23,410; -417
18:29:23,414; -409
18:29:23,418; -401
18:29:23,422; -418
18:29:23,426; -393
18:29:23,430; -416
18:29:23,434; -410
18:29:23,438; -425
18:29:23,441; -406
18:29:23,445; -411
18:29:23,449; -408
18:29:23,453; -417
18:29:23,457; -411
18:29:23,461; -422
18:29:23,465; -405
18:29:23,469; -424
18:29:23,473; -409
18:29:23,477; -411
18:29:23,480; -398
18:29:23,484; -416
18:29:23,488; -402
18:29:23,492; -392
18:29:23,496; -377
18:29:23,500; -394
18:29:23,504; -356
18:29:23,508; -357
18:29:23,512; -331
18:29:23,516; -331
18:29:23,520; -302
18:29:23,523; -309
18:29:23,527; -279
18:29:23,531; -286
18:29:23,535; -287
18:29:23,539; -291
18:29:23,543; -294
18:29:23,547; -321
18:29:23,551; -341
18:29:23,555; -332
18:29:23,559; -331
18:29:23,562; -350
18:29:23,566; -342
18:29:23,570; -354
18:29:23,574; -373
18:29:23,578; -413
18:29:23,582; -425
18:29:23,586; -428
18:29:23,590; -441
18:29:23,594; -440
18:29:23,598; -417
18:29:23,602; -427
18:29:23,605; -409
18:29:23,609; -435
18:29:23,613; -423
18:29:23,617; -420
18:29:23,621; -417
18:29:23,625; -421
18:29:23,629; -421
18:29:23,633; -421
18:29:23,637; -454
18:29:23,641; -440
18:29:23,645; -393
18:29:23,648; -255
18:29:23,652; -19
18:29:23,656; 395
18:29:23,660; 1011
18:29:23,664; 1633
18:29:23,668; 2030
18:29:23,672; 2335
18:29:23,676; 2242
18:29:23,680; 1682
18:29:23,684; 980
18:29:23,688; 289
18:29:23,691; -380
18:29:23,695; -458
18:29:23,699; -450
18:29:23,703; -394
18:29:23,707; -274
18:29:23,711; -199
18:29:23,715; -297
18:29:23,719; -379
18:29:23,723; -395
18:29:23,727; -367
18:29:23,730; -314
18:29:23,734; -393
18:29:23,738; -376
18:29:23,742; -420
18:29:23,746; -379
18:29:23,750; -373
18:29:23,754; -357
18:29:23,758; -380
18:29:23,762; -362
18:29:23,766; -380
18:29:23,770; -382
18:29:23,773; -356
18:29:23,777; -362
18:29:23,781; -368
18:29:23,785; -347
18:29:23,789; -352
18:29:23,793; -320
18:29:23,797; -348
18:29:23,801; -341
18:29:23,805; -324
18:29:23,809; -334
18:29:23,812; -318
18:29:23,816; -311
18:29:23,820; -298
18:29:23,824; -280
18:29:23,828; -297
18:29:23,832; -267
18:29:23,836; -257
18:29:23,840; -255
18:29:23,844; -232
18:29:23,848; -219
18:29:23,852; -199
18:29:23,855; -181
18:29:23,859; -173
18:29:23,863; -142
18:29:23,867; -113
18:29:23,871; -87
18:29:23,875; -52
18:29:23,879; -19
18:29:23,883; 27
18:29:23,887; 73
18:29:23,891; 78
18:29:23,895; 136
18:29:23,898; 171
18:29:23,902; 195
18:29:23,906; 236
18:29:23,910; 267
18:29:23,914; 304
18:29:23,918; 334
18:29:23,922; 333
18:29:23,926; 364
18:29:23,930; 350
18:29:23,934; 327
18:29:23,938; 297
18:29:23,941; 240
18:29:23,945; 198
18:29:23,949; 147
18:29:23,953; 71
18:29:23,957; 11
18:29:23,961; -32
18:29:23,965; -99
18:29:23,969; -144
18:29:23,973; -174
18:29:23,977; -215
18:29:23,980; -241
18:29:23,984; -277
18:29:23,988; -296
18:29:23,992; -323
18:29:23,996; -335
18:29:24,000; -344
18:29:24,004; -353
18:29:24,008; -360
18:29:24,012; -356
18:29:24,016; -369
18:29:24,020; -357
18:29:24,023; -371
18:29:24,027; -380
18:29:24,031; -374
18:29:24,035; -385
18:29:24,039; -372
18:29:24,043; -374
18:29:24,047; -386
18:29:24,051; -376
18:29:24,055; -382
18:29:24,059; -370
18:29:24,063; -375
18:29:24,066; -363
18:29:24,070; -355
18:29:24,074; -353
18:29:24,078; -381
18:29:24,082; -354
18:29:24,086; -349
18:29:24,090; -365
18:29:24,094; -351
18:29:24,098; -356
18:29:24,102; -347
18:29:24,105; -350
18:29:24,109; -353
18:29:24,113; -332
18:29:24,117; -348
18:29:24,121; -347
18:29:24,125; -355
18:29:24,129; -358
18:29:24,133; -357
18:29:24,137; -347
18:29:24,141; -372
18:29:24,145; -357
18:29:24,148; -374
18:29:24,152; -367
18:29:24,156; -382
18:29:24,160; -387
18:29:24,164; -377
18:29:24,168; -384
18:29:24,172; -400
18:29:24,176; -403
18:29:24,180; -394
18:29:24,184; -410
18:29:24,188; -417
18:29:24,191; -409
18:29:24,195; -419
18:29:24,199; -408
18:29:24,203; -425
18:29:24,207; -422
18:29:24,211; -428
18:29:24,215; -424
18:29:24,219; -421
18:29:24,223; -430
18:29:24,227; -427
18:29:24,230; -424
18:29:24,234; -438
18:29:24,238; -426
18:29:24,242; -437
18:29:24,246; -421
18:29:24,250; -434
18:29:24,254; -430
18:29:24,258; -441
18:29:24,262; -429
18:29:24,266; -441
18:29:24,270; -441
18:29:24,273; -428
18:29:24,277; -439
18:29:24,281; -437
18:29:24,285; -425
18:29:24,289; -448
18:29:24,293; -416
18:29:24,297; -448
18:29:24,301; -441
18:29:24,305; -438
18:29:24,309; -445
18:29:24,312; -452
18:29:24,316; -441
18:29:24,320; -438
18:29:24,324; -426
18:29:24,328; -436
18:29:24,332; -437
18:29:24,336; -434
18:29:24,340; -443
18:29:24,344; -445
18:29:24,348; -441
18:29:24,352; -443
18:29:24,355; -431
18:29:24,359; -448
18:29:24,363; -440
18:29:24,367; -435
18:29:24,371; -439
18:29:24,375; -432
18:29:24,379; -441
18:29:24,383; -439
18:29:24,387; -433
18:29:24,391; -448
18:29:24,395; -433
18:29:24,398; -448
18:29:24,402; -441
18:29:24,406; -443
18:29:24,410; -448
18:29:24,414; -442
18:29:24,418; -416
18:29:24,422; -442
18:29:24,426; -411
18:29:24,430; -413
18:29:24,434; -400
18:29:24,438; -378
18:29:24,441; -366
18:29:24,445; -343
18:29:24,449; -331
18:29:24,453; -325
18:29:24,457; -314
18:29:24,461; -306
18:29:24,465; -310
18:29:24,469; -328
18:29:24,473; -328
18:29:24,477; -357
18:29:24,480; -348
18:29:24,484; -382
18:29:24,488; -377
18:29:24,492; -383
18:29:24,496; -401
18:29:24,500; -400
18:29:24,504; -435
18:29:24,508; -443
18:29:24,512; -441
18:29:24,516; -478
18:29:24,520; -470
18:29:24,523; -468
18:29:24,527; -475
18:29:24,531; -464
18:29:24,535; -463
18:29:24,539; -464
18:29:24,543; -458
18:29:24,547; -465
18:29:24,551; -458
18:29:24,555; -464
18:29:24,559; -466
18:29:24,562; -491
18:29:24,566; -498
18:29:24,570; -469
18:29:24,574; -410
18:29:24,578; -330
18:29:24,582; -105
18:29:24,586; 435
18:29:24,590; 1150
18:29:24,594; 1713
18:29:24,598; 2173
18:29:24,602; 2274
18:29:24,605; 2124
18:29:24,609; 1242
18:29:24,613; 642
18:29:24,617; -242
18:29:24,621; -510
18:29:24,625; -473
18:29:24,629; -608
18:29:24,633; -344
18:29:24,637; -292
18:29:24,641; -269
18:29:24,645; -439
18:29:24,648; -505
18:29:24,652; -492
18:29:24,656; -423
18:29:24,660; -425
18:29:24,664; -426
18:29:24,668; -439
18:29:24,672; -474
18:29:24,676; -437
18:29:24,680; -423
18:29:24,684; -440
18:29:24,688; -425
18:29:24,691; -422
18:29:24,695; -401
18:29:24,699; -409
18:29:24,703; -404
18:29:24,707; -391
18:29:24,711; -394
18:29:24,715; -390
18:29:24,719; -389
18:29:24,723; -390
18:29:24,727; -382
18:29:24,730; -365
18:29:24,734; -376
18:29:24,738; -358
18:29:24,742; -357
18:29:24,746; -357
18:29:24,750; -346
18:29:24,754; -335
18:29:24,758; -325
18:29:24,762; -299
18:29:24,766; -307
18:29:24,770; -297
18:29:24,773; -275
18:29:24,777; -271
18:29:24,781; -258
18:29:24,785; -234
18:29:24,789; -209
18:29:24,793; -168
18:29:24,797; -158
18:29:24,801; -125
18:29:24,805; -85
18:29:24,809; -56
18:29:24,812; -23
18:29:24,816; 22
18:29:24,820; 66
18:29:24,824; 110
18:29:24,828; 119
18:29:24,832; 180
18:29:24,836; 180
18:29:24,840; 226
18:29:24,844; 260
18:29:24,848; 284
18:29:24,852; 292
18:29:24,855; 309
18:29:24,859; 301
18:29:24,863; 274
18:29:24,867; 230
18:29:24,871; 194
18:29:24,875; 134
18:29:24,879; 69
18:29:24,883; 15
18:29:24,887; -35
18:29:24,891; -110
18:29:24,895; -150
18:29:24,898; -218
18:29:24,902; -228
18:29:24,906; -268
18:29:24,910; -296
18:29:24,914; -320
18:29:24,918; -331
18:29:24,922; -366
18:29:24,926; -389
18:29:24,930; -402
18:29:24,934; -399
18:29:24,938; -412
18:29:24,941; -427
18:29:24,945; -409
18:29:24,949; -418
18:29:24,953; -417
18:29:24,957; -419
18:29:24,961; -428
18:29:24,965; -425
18:29:24,969; -439
18:29:24,973; -433
18:29:24,977; -431
18:29:24,980; -417
18:29:24,984; -427
18:29:24,988; -421
18:29:24,992; -413
18:29:24,996; -420
18:29:25,000; -417
18:29:25,004; -405
18:29:25,008; -415
18:29:25,012; -394
18:29:25,016; -405
18:29:25,020; -407
18:29:25,023; -396
18:29:25,027; -398
18:29:25,031; -392
18:29:25,035; -390
18:29:25,039; -385
18:29:25,043; -377
18:29:25,047; -398
18:29:25,051; -401
18:29:25,055; -398
18:29:25,059; -412
18:29:25,062; -408
18:29:25,066; -398
18:29:25,070; -414
18:29:25,074; -400
18:29:25,078; -417
18:29:25,082; -424
18:29:25,086; -424
18:29:25,090; -421
18:29:25,094; -425
18:29:25,098; -428
18:29:25,102; -430
18:29:25,105; -416
18:29:25,109; -452
18:29:25,113; -424
18:29:25,117; -444
18:29:25,121; -446
18:29:25,125; -446
18:29:25,129; -443
18:29:25,133; -441
18:29:25,137; -439
18:29:25,141; -468
18:29:25,145; -453
18:29:25,148; -468
18:29:25,152; -461
18:29:25,156; -465
18:29:25,160; -452
18:29:25,164; -452
18:29:25,168; -453
18:29:25,172; -464
18:29:25,176; -459
18:29:25,180; -461
18:29:25,184; -460
18:29:25,188; -469
18:29:25,191; -465
18:29:25,195; -469
18:29:25,199; -467
18:29:25,203; -481
18:29:25,207; -473
18:29:25,211; -476
18:29:25,215; -487
18:29:25,219; -474
18:29:25,223; -478
18:29:25,227; -468
18:29:25,230; -460
18:29:25,234; -478
18:29:25,238; -466
18:29:25,242; -473
18:29:25,246; -473
18:29:25,250; -487
18:29:25,254; -484
18:29:25,258; -464
18:29:25,262; -468
18:29:25,266; -481
18:29:25,270; -476
18:29:25,273; -470
18:29:25,277; -476
18:29:25,281; -473
18:29:25,285; -478
18:29:25,289; -470
18:29:25,293; -457
18:29:25,297; -482
18:29:25,301; -473
18:29:25,305; -475
18:29:25,309; -478
18:29:25,312; -460
18:29:25,316; -485
18:29:25,320; -463
18:29:25,324; -456
18:29:25,328; -490
18:29:25,332; -470
18:29:25,336; -478
18:29:25,340; -491
18:29:25,344; -476
18:29:25,348; -488
18:29:25,352; -469
18:29:25,355; -460
18:29:25,359; -464
18:29:25,363; -457
18:29:25,367; -432
18:29:25,371; -443
18:29:25,375; -429
18:29:25,379; -401
18:29:25,383; -389
18:29:25,387; -371
18:29:25,391; -355
18:29:25,395; -348
18:29:25,398; -331
18:29:25,402; -348
18:29:25,406; -349
18:29:25,410; -370
18:29:25,414; -382
18:29:25,418; -385
18:29:25,422; -410
18:29:25,426; -403
18:29:25,430; -412
18:29:25,434; -413
18:29:25,437; -442
18:29:25,441; -453
18:29:25,445; -472
18:29:25,449; -478
18:29:25,453; -499
18:29:25,457; -495
18:29:25,461; -496
18:29:25,465; -483
18:29:25,469; -493
18:29:25,473; -488
18:29:25,477; -488
18:29:25,480; -476
18:29:25,484; -484
18:29:25,488; -477
18:29:25,492; -483
18:29:25,496; -477
18:29:25,500; -524
18:29:25,504; -525
18:29:25,508; -494
18:29:25,512; -402
18:29:25,516; -272
18:29:25,520; 4
18:29:25,523; 640
18:29:25,527; 1132
18:29:25,531; 1890
18:29:25,535; 2130
18:29:25,539; 2226
18:29:25,543; 1938
18:29:25,547; 1242
18:29:25,551; 416
18:29:25,555; -204
18:29:25,559; -504
18:29:25,563; -621
18:29:25,566; -562
18:29:25,570; -355
18:29:25,574; -311
18:29:25,578; -367
18:29:25,582; -400
18:29:25,586; -426
18:29:25,590; -524
18:29:25,594; -470
18:29:25,598; -373
18:29:25,602; -430
18:29:25,605; -471
18:29:25,609; -432
18:29:25,613; -419
18:29:25,617; -425
18:29:25,621; -417
18:29:25,625; -444
18:29:25,629; -442
18:29:25,633; -423
18:29:25,637; -412
18:29:25,641; -424
18:29:25,645; -411
18:29:25,648; -417
18:29:25,652; -412
18:29:25,656; -428
18:29:25,660; -406
18:29:25,664; -393
18:29:25,668; -392
18:29:25,672; -383
18:29:25,676; -387
18:29:25,680; -370
18:29:25,684; -369
18:29:25,688; -355
18:29:25,691; -357
18:29:25,695; -349
18:29:25,699; -333
18:29:25,703; -323
18:29:25,707; -298
18:29:25,711; -278
18:29:25,715; -285
18:29:25,719; -271
18:29:25,723; -233
18:29:25,727; -232
18:29:25,730; -176
18:29:25,734; -159
18:29:25,738; -132
18:29:25,742; -93
18:29:25,746; -76
18:29:25,750; -27
18:29:25,754; 17
18:29:25,758; 67
18:29:25,762; 115
18:29:25,766; 136
18:29:25,770; 165
18:29:25,773; 212
18:29:25,777; 225
18:29:25,781; 256
18:29:25,785; 269
18:29:25,789; 298
18:29:25,793; 324
18:29:25,797; 307
18:29:25,801; 287
18:29:25,805; 250
18:29:25,809; 199
18:29:25,812; 136
18:29:25,816; 74
18:29:25,820; 7
18:29:25,824; -24
18:29:25,828; -126
18:29:25,832; -141
18:29:25,836; -220
18:29:25,840; -260
18:29:25,844; -276
18:29:25,848; -314
18:29:25,852; -348
18:29:25,855; -360
18:29:25,859; -388
18:29:25,863; -399
18:29:25,867; -414
18:29:25,871; -427
18:29:25,875; -429
18:29:25,879; -440
18:29:25,883; -444
18:29:25,887; -431
18:29:25,891; -467
18:29:25,895; -457
18:29:25,898; -472
18:29:25,902; -471
18:29:25,906; -470
18:29:25,910; -473
18:29:25,914; -467
18:29:25,918; -443
18:29:25,922; -473
18:29:25,926; -468
18:29:25,930; -450
18:29:25,934; -458
18:29:25,938; -449
18:29:25,941; -449
18:29:25,945; -441
18:29:25,949; -434
18:29:25,953; -438
18:29:25,957; -428
18:29:25,961; -431
18:29:25,965; -431
18:29:25,969; -439
18:29:25,973; -436
18:29:25,977; -439
18:29:25,980; -427
18:29:25,984; -450
18:29:25,988; -455
18:29:25,992; -437
18:29:25,996; -455
18:29:26,000; -451
18:29:26,004; -458
18:29:26,008; -462
18:29:26,012; -440
18:29:26,016; -483
18:29:26,020; -470
18:29:26,023; -474
18:29:26,027; -491
18:29:26,031; -487
18:29:26,035; -496
18:29:26,039; -488
18:29:26,043; -484
18:29:26,047; -501
18:29:26,051; -490
18:29:26,055; -505
18:29:26,059; -489
18:29:26,062; -502
18:29:26,066; -513
18:29:26,070; -508
18:29:26,074; -498
18:29:26,078; -519
18:29:26,082; -524
18:29:26,086; -526
18:29:26,090; -529
18:29:26,094; -527
18:29:26,098; -550
18:29:26,102; -525
18:29:26,105; -510
18:29:26,109; -541
18:29:26,113; -521
18:29:26,117; -548
18:29:26,121; -535
18:29:26,125; -532
18:29:26,129; -548
18:29:26,133; -534
18:29:26,137; -539
18:29:26,141; -542
18:29:26,145; -532
18:29:26,148; -552
18:29:26,152; -533
18:29:26,156; -533
18:29:26,160; -551
18:29:26,164; -506
18:29:26,168; -495
18:29:26,172; -481
18:29:26,176; -462
18:29:26,180; -467
18:29:26,184; -444
18:29:26,188; -463
18:29:26,191; -430
18:29:26,195; -427
18:29:26,199; -396
18:29:26,203; -394
18:29:26,207; -408
18:29:26,211; -415
18:29:26,215; -438
18:29:26,219; -442
18:29:26,223; -452
18:29:26,227; -457
18:29:26,230; -460
18:29:26,234; -485
18:29:26,238; -495
18:29:26,242; -526
18:29:26,246; -543
18:29:26,250; -572
18:29:26,254; -564
18:29:26,258; -561
18:29:26,262; -581
18:29:26,266; -588
18:29:26,270; -587
18:29:26,273; -578
18:29:26,277; -591
18:29:26,281; -592
18:29:26,285; -565
18:29:26,289; -580
18:29:26,293; -559
18:29:26,297; -584
18:29:26,301; -578
18:29:26,305; -589
18:29:26,309; -609
18:29:26,312; -586
18:29:26,316; -519
18:29:26,320; -371
18:29:26,324; -112
18:29:26,328; 343
18:29:26,332; 1086
18:29:26,336; 1589
18:29:26,340; 1988
18:29:26,344; 2241
18:29:26,348; 1981
18:29:26,352; 1424
18:29:26,355; 502
18:29:26,359; -193
18:29:26,363; -531
18:29:26,367; -834
18:29:26,371; -741
18:29:26,375; -563
18:29:26,379; -426
18:29:26,383; -375
18:29:26,387; -465
18:29:26,391; -601
18:29:26,395; -526
18:29:26,398; -537
18:29:26,402; -536
18:29:26,406; -546
18:29:26,410; -523
18:29:26,414; -545
18:29:26,418; -507
18:29:26,422; -576
18:29:26,426; -524
18:29:26,430; -508
18:29:26,434; -551
18:29:26,438; -521
18:29:26,441; -518
18:29:26,445; -530
18:29:26,449; -498
18:29:26,453; -511
18:29:26,457; -498
18:29:26,461; -491
18:29:26,465; -504
18:29:26,469; -502
18:29:26,473; -483
18:29:26,477; -500
18:29:26,480; -448
18:29:26,484; -471
18:29:26,488; -458
18:29:26,492; -455
18:29:26,496; -466
18:29:26,500; -436
18:29:26,504; -423
18:29:26,508; -408
18:29:26,512; -368
18:29:26,516; -400
18:29:26,520; -361
18:29:26,523; -342
18:29:26,527; -343
18:29:26,531; -312
18:29:26,535; -282
18:29:26,539; -251
18:29:26,543; -210
18:29:26,547; -189
18:29:26,551; -136
18:29:26,555; -101
18:29:26,559; -64
18:29:26,562; -5
18:29:26,566; 7
18:29:26,570; 62
18:29:26,574; 110
18:29:26,578; 134
18:29:26,582; 161
18:29:26,586; 208
18:29:26,590; 225
18:29:26,594; 231
18:29:26,598; 252
18:29:26,602; 242
18:29:26,605; 231
18:29:26,609; 194
18:29:26,613; 110
18:29:26,617; 61
18:29:26,621; -23
18:29:26,625; -105
18:29:26,629; -189
18:29:26,633; -242
18:29:26,637; -270
18:29:26,641; -354
18:29:26,645; -348
18:29:26,648; -410
18:29:26,652; -410
18:29:26,656; -453
18:29:26,660; -455
18:29:26,664; -486
18:29:26,668; -505
18:29:26,672; -519
18:29:26,676; -533
18:29:26,680; -532
18:29:26,684; -549
18:29:26,688; -555
18:29:26,691; -538
18:29:26,695; -548
18:29:26,699; -552
18:29:26,703; -569
18:29:26,707; -560
18:29:26,711; -556
18:29:26,715; -559
18:29:26,719; -564
18:29:26,723; -549
18:29:26,727; -527
18:29:26,730; -524
18:29:26,734; -552
18:29:26,738; -529
18:29:26,742; -538
18:29:26,746; -547
18:29:26,750; -538
18:29:26,754; -547
18:29:26,758; -515
18:29:26,762; -501
18:29:26,766; -515
18:29:26,770; -504
18:29:26,773; -513
18:29:26,777; -523
18:29:26,781; -528
18:29:26,785; -533
18:29:26,789; -534
18:29:26,793; -507
18:29:26,797; -523
18:29:26,801; -539
18:29:26,805; -521
18:29:26,809; -538
18:29:26,812; -541
18:29:26,816; -543
18:29:26,820; -550
18:29:26,824; -544
18:29:26,828; -572
18:29:26,832; -556
18:29:26,836; -553
18:29:26,840; -553
18:29:26,844; -559
18:29:26,848; -557
18:29:26,852; -545
18:29:26,855; -537
18:29:26,859; -517
18:29:26,863; -502
18:29:26,867; -484
18:29:26,871; -461
18:29:26,875; -492
18:29:26,879; -473
18:29:26,883; -465
18:29:26,887; -477
18:29:26,891; -469
18:29:26,895; -482
18:29:26,898; -489
18:29:26,902; -495
18:29:26,906; -491
18:29:26,910; -488
18:29:26,914; -489
18:29:26,918; -497
18:29:26,922; -534
18:29:26,926; -547
18:29:26,930; -573
18:29:26,934; -605
18:29:26,937; -614
18:29:26,941; -623
18:29:26,945; -629
18:29:26,949; -628
18:29:26,953; -641
18:29:26,957; -629
18:29:26,961; -636
18:29:26,965; -624
18:29:26,969; -658
18:29:26,973; -650
18:29:26,977; -647
18:29:26,980; -623
18:29:26,984; -647
18:29:26,988; -637
18:29:26,992; -638
18:29:26,996; -673
18:29:27,000; -664
18:29:27,004; -645
18:29:27,008; -512
18:29:27,012; -285
18:29:27,016; 61
18:29:27,020; 658
18:29:27,023; 1271
18:29:27,027; 1808
18:29:27,031; 2098
18:29:27,035; 2176
18:29:27,039; 1861
18:29:27,043; 1207
18:29:27,047; 180
18:29:27,051; -267
18:29:27,055; -669
18:29:27,059; -807
18:29:27,062; -718
18:29:27,066; -448
18:29:27,070; -398
18:29:27,074; -476
18:29:27,078; -515
18:29:27,082; -667
18:29:27,086; -562
18:29:27,090; -656
18:29:27,094; -571
18:29:27,098; -605
18:29:27,102; -622
18:29:27,105; -629
18:29:27,109; -591
18:29:27,113; -608
18:29:27,117; -576
18:29:27,121; -605
18:29:27,125; -601
18:29:27,129; -600
18:29:27,133; -602
18:29:27,137; -570
18:29:27,141; -578
18:29:27,145; -540
18:29:27,148; -539
18:29:27,152; -542
18:29:27,156; -553
18:29:27,160; -583
18:29:27,164; -556
18:29:27,168; -519
18:29:27,172; -533
18:29:27,176; -522
18:29:27,180; -505
18:29:27,184; -484
18:29:27,188; -472
18:29:27,191; -484
18:29:27,195; -471
18:29:27,199; -441
18:29:27,203; -447
18:29:27,207; -439
18:29:27,211; -405
18:29:27,215; -395
18:29:27,219; -361
18:29:27,223; -342
18:29:27,227; -317
18:29:27,230; -263
18:29:27,234; -245
18:29:27,238; -187
18:29:27,242; -157
18:29:27,246; -113
18:29:27,250; -61
18:29:27,254; -30
18:29:27,258; 35
18:29:27,262; 87
18:29:27,266; 99
18:29:27,270; 140
18:29:27,273; 155
18:29:27,277; 174
18:29:27,281; 164
18:29:27,285; 204
18:29:27,289; 170
18:29:27,293; 123
18:29:27,297; 76
18:29:27,301; -7
18:29:27,305; -72
18:29:27,309; -141
18:29:27,312; -184
18:29:27,316; -260
18:29:27,320; -310
18:29:27,324; -346
18:29:27,328; -425
18:29:27,332; -426
18:29:27,336; -443
18:29:27,340; -516
18:29:27,344; -536
18:29:27,348; -554
18:29:27,352; -592
18:29:27,355; -567
18:29:27,359; -583
18:29:27,363; -571
18:29:27,367; -587
18:29:27,371; -582
18:29:27,375; -621
18:29:27,379; -638
18:29:27,383; -613
18:29:27,387; -612
18:29:27,391; -618
18:29:27,395; -613
18:29:27,398; -636
18:29:27,402; -630
18:29:27,406; -638
18:29:27,410; -627
18:29:27,414; -622
18:29:27,418; -599
18:29:27,422; -617
18:29:27,426; -582
18:29:27,430; -623
18:29:27,434; -604
18:29:27,438; -590
18:29:27,441; -594
18:29:27,445; -594
18:29:27,449; -608
18:29:27,453; -588
18:29:27,457; -588
18:29:27,461; -585
18:29:27,465; -557
18:29:27,469; -585
18:29:27,473; -577
18:29:27,477; -583
18:29:27,480; -581
18:29:27,484; -597
18:29:27,488; -561
18:29:27,492; -585
18:29:27,496; -578
18:29:27,500; -599
18:29:27,504; -596
18:29:27,508; -599
18:29:27,512; -593
18:29:27,516; -600
18:29:27,520; -598
18:29:27,523; -603
18:29:27,527; -612
18:29:27,531; -615
18:29:27,535; -600
18:29:27,539; -611
18:29:27,543; -596
18:29:27,547; -631
18:29:27,551; -621
18:29:27,555; -620
18:29:27,559; -625
18:29:27,562; -635
18:29:27,566; -629
18:29:27,570; -629
18:29:27,574; -623
18:29:27,578; -632
18:29:27,582; -623
18:29:27,586; -602
18:29:27,590; -584
18:29:27,594; -568
18:29:27,598; -555
18:29:27,602; -527
18:29:27,605; -519
18:29:27,609; -534
18:29:27,613; -501
18:29:27,617; -505
18:29:27,621; -510
18:29:27,625; -515
18:29:27,629; -531
18:29:27,633; -520
18:29:27,637; -525
18:29:27,641; -564
18:29:27,645; -553
18:29:27,648; -553
18:29:27,652; -577
18:29:27,656; -602
18:29:27,660; -601
18:29:27,664; -636
18:29:27,668; -651
18:29:27,672; -665
18:29:27,676; -700
18:29:27,680; -688
18:29:27,684; -696
18:29:27,688; -691
18:29:27,691; -684
18:29:27,695; -691
18:29:27,699; -667
18:29:27,703; -680
18:29:27,707; -683
18:29:27,711; -662
18:29:27,715; -681
18:29:27,719; -680
18:29:27,723; -686
18:29:27,727; -704
18:29:27,730; -694
18:29:27,734; -684
18:29:27,738; -652
18:29:27,742; -509
18:29:27,746; -132
18:29:27,750; 569
18:29:27,754; 1073
18:29:27,758; 1825
18:29:27,762; 2054
18:29:27,766; 2148
18:29:27,770; 1743
18:29:27,773; 1067
18:29:27,777; 204
18:29:27,781; -448
18:29:27,785; -743
18:29:27,789; -836
18:29:27,793; -767
18:29:27,797; -570
18:29:27,801; -537
18:29:27,805; -483
18:29:27,809; -622
18:29:27,812; -692
18:29:27,816; -617
18:29:27,820; -643
18:29:27,824; -535
18:29:27,828; -660
18:29:27,832; -661
18:29:27,836; -630
18:29:27,840; -634
18:29:27,844; -625
18:29:27,848; -667
18:29:27,852; -653
18:29:27,855; -648
18:29:27,859; -640
18:29:27,863; -611
18:29:27,867; -620
18:29:27,871; -634
18:29:27,875; -605
18:29:27,879; -592
18:29:27,883; -608
18:29:27,887; -575
18:29:27,891; -595
18:29:27,895; -568
18:29:27,898; -581
18:29:27,902; -572
18:29:27,906; -550
18:29:27,910; -545
18:29:27,914; -551
18:29:27,918; -517
18:29:27,922; -527
18:29:27,926; -495
18:29:27,930; -506
18:29:27,934; -491
18:29:27,938; -468
18:29:27,941; -439
18:29:27,945; -416
18:29:27,949; -401
18:29:27,953; -374
18:29:27,957; -327
18:29:27,961; -327
18:29:27,965; -282
18:29:27,969; -249
18:29:27,973; -203
18:29:27,977; -164
18:29:27,980; -110
18:29:27,984; -91
18:29:27,988; -37
18:29:27,992; 13
18:29:27,996; 17
18:29:28,000; 59
18:29:28,004; 87
18:29:28,008; 106
18:29:28,012; 123
18:29:28,016; 118
18:29:28,020; 93
18:29:28,023; 56
18:29:28,027; 7
18:29:28,031; -39
18:29:28,035; -132
18:29:28,039; -174
18:29:28,043; -222
18:29:28,047; -305
18:29:28,051; -328
18:29:28,055; -377
18:29:28,059; -420
18:29:28,062; -466
18:29:28,066; -491
18:29:28,070; -530
18:29:28,074; -540
18:29:28,078; -561
18:29:28,082; -570
18:29:28,086; -588
18:29:28,090; -590
18:29:28,094; -603
18:29:28,098; -605
18:29:28,102; -597
18:29:28,105; -601
18:29:28,109; -635
18:29:28,113; -625
18:29:28,117; -619
18:29:28,121; -641
18:29:28,125; -631
18:29:28,129; -617
18:29:28,133; -604
18:29:28,137; -608
18:29:28,141; -631
18:29:28,145; -602
18:29:28,148; -610
18:29:28,152; -617
18:29:28,156; -601
18:29:28,160; -599
18:29:28,164; -594
18:29:28,168; -578
18:29:28,172; -604
18:29:28,176; -596
18:29:28,180; -585
18:29:28,184; -578
18:29:28,188; -589
18:29:28,191; -574
18:29:28,195; -569
18:29:28,199; -561
18:29:28,203; -575
18:29:28,207; -568
18:29:28,211; -557
18:29:28,215; -563
18:29:28,219; -561
18:29:28,223; -550
18:29:28,227; -573
18:29:28,230; -544
18:29:28,234; -574
18:29:28,238; -575
18:29:28,242; -566
18:29:28,246; -570
18:29:28,250; -581
18:29:28,254; -578
18:29:28,258; -586
18:29:28,262; -579
18:29:28,266; -595
18:29:28,270; -591
18:29:28,273; -595
18:29:28,277; -594
18:29:28,281; -601
18:29:28,285; -593
18:29:28,289; -603
18:29:28,293; -585
18:29:28,297; -602
18:29:28,301; -612
18:29:28,305; -613
18:29:28,309; -597
18:29:28,312; -621
18:29:28,316; -598
18:29:28,320; -606
18:29:28,324; -604
18:29:28,328; -621
18:29:28,332; -612
18:29:28,336; -616
18:29:28,340; -617
18:29:28,344; -631
18:29:28,348; -625
18:29:28,352; -618
18:29:28,355; -617
18:29:28,359; -624
18:29:28,363; -616
18:29:28,367; -621
18:29:28,371; -625
18:29:28,375; -635
18:29:28,379; -619
18:29:28,383; -632
18:29:28,387; -602
18:29:28,391; -639
18:29:28,395; -625
18:29:28,398; -613
18:29:28,402; -622
18:29:28,406; -626
18:29:28,410; -620
18:29:28,414; -613
18:29:28,418; -603
18:29:28,422; -629
18:29:28,426; -617
18:29:28,430; -630
18:29:28,434; -636
18:29:28,438; -633
18:29:28,441; -638
18:29:28,445; -631
18:29:28,449; -617
18:29:28,453; -631
18:29:28,457; -628
18:29:28,461; -620
18:29:28,465; -617
18:29:28,469; -621
18:29:28,473; -617
18:29:28,477; -632
18:29:28,480; -624
18:29:28,484; -619
18:29:28,488; -633
18:29:28,492; -619
18:29:28,496; -625
18:29:28,500; -616
18:29:28,504; -634
18:29:28,508; -635
18:29:28,512; -604
18:29:28,516; -640
18:29:28,520; -632
18:29:28,523; -624
18:29:28,527; -632
18:29:28,531; -619
18:29:28,535; -637
18:29:28,539; -619
18:29:28,543; -602
18:29:28,547; -639
18:29:28,551; -611
18:29:28,555; -613
18:29:28,559; -627
18:29:28,562; -617
18:29:28,566; -631
18:29:28,570; -621
18:29:28,574; -618
18:29:28,578; -633
18:29:28,582; -622
18:29:28,586; -625
18:29:28,590; -620
18:29:28,594; -619
18:29:28,598; -613
18:29:28,602; -617
18:29:28,605; -625
18:29:28,609; -624
18:29:28,613; -621
18:29:28,617; -634
18:29:28,621; -622
18:29:28,625; -616
18:29:28,629; -621
18:29:28,633; -620
18:29:28,637; -610
18:29:28,641; -615
18:29:28,645; -603
18:29:28,648; -626
18:29:28,652; -605
18:29:28,656; -614
18:29:28,660; -620
18:29:28,664; -595
18:29:28,668; -586
18:29:28,672; -595
18:29:28,676; -582
18:29:28,680; -555
18:29:28,684; -561
18:29:28,688; -542
18:29:28,691; -524
18:29:28,695; -513
18:29:28,699; -495
18:29:28,703; -504
18:29:28,707; -467
18:29:28,711; -464
18:29:28,715; -463
18:29:28,719; -462
18:29:28,723; -469
18:29:28,727; -476
18:29:28,730; -468
18:29:28,734; -485
18:29:28,738; -481
18:29:28,742; -481
18:29:28,746; -475
18:29:28,750; -503
18:29:28,754; -501
18:29:28,758; -517
18:29:28,762; -515
18:29:28,766; -541
18:29:28,770; -539
18:29:28,773; -532
18:29:28,777; -522
18:29:28,781; -528
18:29:28,785; -515
18:29:28,789; -517
18:29:28,793; -505
18:29:28,797; -525
18:29:28,801; -512
18:29:28,805; -501
18:29:28,809; -526
18:29:28,813; -539
18:29:28,816; -527
18:29:28,820; -487
18:29:28,824; -377
18:29:28,828; -213
18:29:28,832; 71
18:29:28,836; 558
18:29:28,840; 1288
18:29:28,844; 1843
18:29:28,848; 2177
18:29:28,852; 2192
18:29:28,855; 2016
18:29:28,859; 1208
18:29:28,863; 489
18:29:28,867; -276
18:29:28,871; -446
18:29:28,875; -571
18:29:28,879; -600
18:29:28,883; -437
18:29:28,887; -360
18:29:28,891; -370
18:29:28,895; -398
18:29:28,898; -543
18:29:28,902; -482
18:29:28,906; -466
18:29:28,910; -464
18:29:28,914; -457
18:29:28,918; -481
18:29:28,922; -461
18:29:28,926; -447
18:29:28,930; -475
18:29:28,934; -460
18:29:28,938; -458
18:29:28,941; -435
18:29:28,945; -446
18:29:28,949; -430
18:29:28,953; -442
18:29:28,957; -459
18:29:28,961; -444
18:29:28,965; -435
18:29:28,969; -425
18:29:28,973; -429
18:29:28,977; -429
18:29:28,980; -404
18:29:28,984; -411
18:29:28,988; -398
18:29:28,992; -390
18:29:28,996; -386
18:29:29,000; -391
18:29:29,004; -375
18:29:29,008; -366
18:29:29,012; -336
18:29:29,016; -345
18:29:29,020; -324
18:29:29,023; -309
18:29:29,027; -296
18:29:29,031; -278
18:29:29,035; -267
18:29:29,039; -244
18:29:29,043; -203
18:29:29,047; -195
18:29:29,051; -165
18:29:29,055; -131
18:29:29,059; -88
18:29:29,062; -52
18:29:29,066; -27
18:29:29,070; 22
18:29:29,074; 74
18:29:29,078; 88
18:29:29,082; 122
18:29:29,086; 160
18:29:29,090; 176
18:29:29,094; 217
18:29:29,098; 245
18:29:29,102; 264
18:29:29,105; 283
18:29:29,109; 265
18:29:29,113; 271
18:29:29,117; 233
18:29:29,121; 200
18:29:29,125; 163
18:29:29,129; 110
18:29:29,133; 53
18:29:29,137; -4
18:29:29,141; -69
18:29:29,145; -102
18:29:29,148; -169
18:29:29,152; -188
18:29:29,156; -240
18:29:29,160; -277
18:29:29,164; -294
18:29:29,168; -325
18:29:29,172; -340
18:29:29,176; -356
18:29:29,180; -368
18:29:29,184; -373
18:29:29,188; -389
18:29:29,191; -388
18:29:29,195; -399
18:29:29,199; -382
18:29:29,203; -409
18:29:29,207; -406
18:29:29,211; -416
18:29:29,215; -424
18:29:29,219; -411
18:29:29,223; -410
18:29:29,227; -410
18:29:29,230; -381
18:29:29,234; -395
18:29:29,238; -387
18:29:29,242; -393
18:29:29,246; -383
18:29:29,250; -392
18:29:29,254; -380
18:29:29,258; -368
18:29:29,262; -362
18:29:29,266; -384
18:29:29,270; -373
18:29:29,273; -377
18:29:29,277; -380
18:29:29,281; -384
18:29:29,285; -377
18:29:29,289; -373
18:29:29,293; -369
18:29:29,297; -393
18:29:29,301; -371
18:29:29,305; -402
18:29:29,309; -385
18:29:29,312; -390
18:29:29,316; -407
18:29:29,320; -398
18:29:29,324; -390
18:29:29,328; -411
18:29:29,332; -405
18:29:29,336; -411
18:29:29,340; -424
18:29:29,344; -409
18:29:29,348; -433
18:29:29,352; -420
18:29:29,355; -420
18:29:29,359; -435
18:29:29,363; -412
18:29:29,367; -450
18:29:29,371; -416
18:29:29,375; -448
18:29:29,379; -434
18:29:29,383; -431
18:29:29,387; -443
18:29:29,391; -441
18:29:29,395; -444
18:29:29,398; -438
18:29:29,402; -443
18:29:29,406; -455
18:29:29,410; -448
18:29:29,414; -438
18:29:29,418; -435
18:29:29,422; -454
18:29:29,426; -435
18:29:29,430; -447
18:29:29,434; -456
18:29:29,438; -443
18:29:29,441; -453
18:29:29,445; -446
18:29:29,449; -443
18:29:29,453; -455
18:29:29,457; -448
18:29:29,461; -455
18:29:29,465; -442
18:29:29,469; -453
18:29:29,473; -458
18:29:29,477; -460
18:29:29,480; -448
18:29:29,484; -467
18:29:29,488; -446
18:29:29,492; -441
18:29:29,496; -445
18:29:29,500; -452
18:29:29,504; -444
18:29:29,508; -451
18:29:29,512; -440
18:29:29,516; -449
18:29:29,520; -454
18:29:29,523; -444
18:29:29,527; -448
18:29:29,531; -452
18:29:29,535; -453
18:29:29,539; -448
18:29:29,543; -431
18:29:29,547; -464
18:29:29,551; -441
18:29:29,555; -448
18:29:29,559; -462
18:29:29,562; -449
18:29:29,566; -448
18:29:29,570; -441
18:29:29,574; -437
18:29:29,578; -440
18:29:29,582; -439
18:29:29,586; -460
18:29:29,590; -444
18:29:29,594; -453
18:29:29,598; -449
18:29:29,602; -447
18:29:29,605; -429
18:29:29,609; -452
18:29:29,613; -446
18:29:29,617; -447
18:29:29,621; -451
18:29:29,625; -443
18:29:29,629; -450
18:29:29,633; -435
18:29:29,637; -440
18:29:29,641; -451
18:29:29,645; -447
18:29:29,648; -438
18:29:29,652; -441
18:29:29,656; -421
18:29:29,660; -408
18:29:29,664; -396
18:29:29,668; -382
18:29:29,672; -370
18:29:29,676; -365
18:29:29,680; -332
18:29:29,684; -350
18:29:29,688; -328
18:29:29,691; -304
18:29:29,695; -320
18:29:29,699; -307
18:29:29,703; -323
18:29:29,707; -352
18:29:29,711; -345
18:29:29,715; -364
18:29:29,719; -375
18:29:29,723; -365
18:29:29,727; -372
18:29:29,730; -361
18:29:29,734; -400
18:29:29,738; -417
18:29:29,742; -438
18:29:29,746; -460
18:29:29,750; -455
18:29:29,754; -465
18:29:29,758; -458
18:29:29,762; -429
18:29:29,766; -458
18:29:29,770; -441
18:29:29,773; -456
18:29:29,777; -449
18:29:29,781; -452
18:29:29,785; -450
18:29:29,789; -451
18:29:29,793; -444
18:29:29,797; -477
18:29:29,801; -473
18:29:29,805; -408
18:29:29,809; -322
18:29:29,812; -182
18:29:29,816; 64
18:29:29,820; 577
18:29:29,824; 1263
18:29:29,828; 1828
18:29:29,832; 2145
18:29:29,836; 2274
18:29:29,840; 1935
18:29:29,844; 1266
18:29:29,848; 333
18:29:29,852; -296
18:29:29,855; -392
18:29:29,859; -558
18:29:29,863; -468
18:29:29,867; -351
18:29:29,871; -279
18:29:29,875; -284
18:29:29,879; -385
18:29:29,883; -465
18:29:29,887; -401
18:29:29,891; -374
18:29:29,895; -381
18:29:29,898; -435
18:29:29,902; -414
18:29:29,906; -383
18:29:29,910; -355
18:29:29,914; -394
18:29:29,918; -379
18:29:29,922; -394
18:29:29,926; -378
18:29:29,930; -376
18:29:29,934; -385
18:29:29,938; -363
18:29:29,941; -368
18:29:29,945; -376
18:29:29,949; -349
18:29:29,953; -350
18:29:29,957; -352
18:29:29,961; -351
18:29:29,965; -340
18:29:29,969; -336
18:29:29,973; -335
18:29:29,977; -323
18:29:29,980; -297
18:29:29,984; -317
18:29:29,988; -300
18:29:29,992; -284
18:29:29,996; -289
18:29:30,000; -263
18:29:30,004; -250
18:29:30,008; -237
18:29:30,012; -195
18:29:30,016; -206
18:29:30,020; -189
18:29:30,023; -153
18:29:30,027; -147
18:29:30,031; -113
18:29:30,035; -88
18:29:30,039; -53
18:29:30,043; -6
18:29:30,047; 6
18:29:30,051; 67
18:29:30,055; 98
18:29:30,059; 140
18:29:30,062; 183
18:29:30,066; 196
18:29:30,070; 241
18:29:30,074; 275
18:29:30,078; 281
18:29:30,082; 315
18:29:30,086; 333
18:29:30,090; 341
18:29:30,094; 337
18:29:30,098; 317
18:29:30,102; 291
18:29:30,105; 261
18:29:30,109; 196
18:29:30,113; 125
18:29:30,117; 89
18:29:30,121; 20
18:29:30,125; -50
18:29:30,129; -95
18:29:30,133; -127
18:29:30,137; -170
18:29:30,141; -228
18:29:30,145; -241
18:29:30,148; -277
18:29:30,152; -296
18:29:30,156; -310
18:29:30,160; -329
18:29:30,164; -327
18:29:30,168; -332
18:29:30,172; -354
18:29:30,176; -376
18:29:30,180; -375
18:29:30,184; -367
18:29:30,187; -381
18:29:30,191; -361
18:29:30,195; -360
18:29:30,199; -354
18:29:30,203; -374
18:29:30,207; -377
18:29:30,211; -371
18:29:30,215; -365
18:29:30,219; -350
18:29:30,223; -353
18:29:30,227; -362
18:29:30,230; -328
18:29:30,234; -358
18:29:30,238; -348
18:29:30,242; -330
18:29:30,246; -329
18:29:30,250; -336
18:29:30,254; -331
18:29:30,258; -310
18:29:30,262; -314
18:29:30,266; -321
18:29:30,270; -320
18:29:30,273; -314
18:29:30,277; -325
18:29:30,281; -341
18:29:30,285; -305
18:29:30,289; -332
18:29:30,293; -327
18:29:30,297; -344
18:29:30,301; -343
18:29:30,305; -340
18:29:30,309; -340
18:29:30,313; -336
18:29:30,316; -330
18:29:30,320; -348
18:29:30,324; -345
18:29:30,328; -366
18:29:30,332; -369
18:29:30,336; -360
18:29:30,340; -371
18:29:30,344; -374
18:29:30,348; -369
18:29:30,352; -371
18:29:30,355; -363
18:29:30,359; -387
18:29:30,363; -364
18:29:30,367; -369
18:29:30,371; -365
18:29:30,375; -389
18:29:30,379; -387
18:29:30,383; -387
18:29:30,387; -394
18:29:30,391; -398
18:29:30,395; -398
18:29:30,398; -385
18:29:30,402; -402
18:29:30,406; -403
18:29:30,410; -393
18:29:30,414; -394
18:29:30,418; -370
18:29:30,422; -385
18:29:30,426; -391
18:29:30,430; -384
18:29:30,434; -400
18:29:30,438; -390
18:29:30,441; -396
18:29:30,445; -386
18:29:30,449; -383
18:29:30,453; -408
18:29:30,457; -401
18:29:30,461; -398
18:29:30,465; -400
18:29:30,469; -395
18:29:30,473; -395
18:29:30,477; -404
18:29:30,480; -400
18:29:30,484; -401
18:29:30,488; -393
18:29:30,492; -393
18:29:30,496; -388
18:29:30,500; -386
18:29:30,504; -418
18:29:30,508; -398
18:29:30,512; -383
18:29:30,516; -408
18:29:30,520; -393
18:29:30,523; -389
18:29:30,527; -406
18:29:30,531; -397
18:29:30,535; -400
18:29:30,539; -401
18:29:30,543; -382
18:29:30,547; -400
18:29:30,551; -396
18:29:30,555; -405
18:29:30,559; -388
18:29:30,562; -400
18:29:30,566; -399
18:29:30,570; -391
18:29:30,574; -371
18:29:30,578; -403
18:29:30,582; -379
18:29:30,586; -393
18:29:30,590; -393
18:29:30,594; -403
18:29:30,598; -394
18:29:30,602; -388
18:29:30,605; -381
18:29:30,609; -385
18:29:30,613; -397
18:29:30,617; -394
18:29:30,621; -396
18:29:30,625; -386
18:29:30,629; -397
18:29:30,633; -383
18:29:30,637; -369
18:29:30,641; -381
18:29:30,645; -360
18:29:30,648; -351
18:29:30,652; -331
18:29:30,656; -311
18:29:30,660; -305
18:29:30,664; -289
18:29:30,668; -269
18:29:30,672; -269
18:29:30,676; -250
18:29:30,680; -255
18:29:30,684; -259
18:29:30,688; -257
18:29:30,691; -292
18:29:30,695; -289
18:29:30,699; -290
18:29:30,703; -297
18:29:30,707; -320
18:29:30,711; -303
18:29:30,715; -320
18:29:30,719; -336
18:29:30,723; -371
18:29:30,727; -372
18:29:30,730; -369
18:29:30,734; -407
18:29:30,738; -386
18:29:30,742; -399
18:29:30,746; -401
18:29:30,750; -395
18:29:30,754; -399
18:29:30,758; -381
18:29:30,762; -379
18:29:30,766; -383
18:29:30,770; -383
18:29:30,773; -392
18:29:30,777; -402
18:29:30,781; -428
18:29:30,785; -415
18:29:30,789; -363
18:29:30,793; -308
18:29:30,797; -213
18:29:30,801; 43
18:29:30,805; 639
18:29:30,809; 1256
18:29:30,812; 1769
18:29:30,816; 2178
18:29:30,820; 2246
18:29:30,824; 1873
18:29:30,828; 1166
18:29:30,832; 441
18:29:30,836; -309
18:29:30,840; -426
18:29:30,844; -423
18:29:30,848; -470
18:29:30,852; -310
18:29:30,855; -164
18:29:30,859; -230
18:29:30,863; -384
18:29:30,867; -390
18:29:30,871; -345
18:29:30,875; -299
18:29:30,879; -330
18:29:30,883; -339
18:29:30,887; -336
18:29:30,891; -351
18:29:30,895; -322
18:29:30,898; -321
18:29:30,902; -339
18:29:30,906; -351
18:29:30,910; -314
18:29:30,914; -333
18:29:30,918; -295
18:29:30,922; -316
18:29:30,926; -327
18:29:30,930; -304
18:29:30,934; -305
18:29:30,938; -317
18:29:30,941; -294
18:29:30,945; -286
18:29:30,949; -278
18:29:30,953; -294
18:29:30,957; -265
18:29:30,961; -259
18:29:30,965; -266
18:29:30,969; -265
18:29:30,973; -242
18:29:30,977; -244
18:29:30,980; -232
18:29:30,984; -221
18:29:30,988; -199
18:29:30,992; -185
18:29:30,996; -162
18:29:31,000; -165
18:29:31,004; -129
18:29:31,008; -115
18:29:31,012; -72
18:29:31,016; -64
18:29:31,020; -25
18:29:31,023; 30
18:29:31,027; 44
18:29:31,031; 76
18:29:31,035; 131
18:29:31,039; 169
18:29:31,043; 222
18:29:31,047; 241
18:29:31,051; 302
18:29:31,055; 312
18:29:31,059; 353
18:29:31,062; 371
18:29:31,066; 405
18:29:31,070; 425
18:29:31,074; 463
18:29:31,078; 439
18:29:31,082; 421
18:29:31,086; 385
18:29:31,090; 352
18:29:31,094; 275
18:29:31,098; 220
18:29:31,102; 167
18:29:31,105; 111
18:29:31,109; 22
18:29:31,113; -28
18:29:31,117; -69
18:29:31,121; -104
18:29:31,125; -152
18:29:31,129; -179
18:29:31,133; -202
18:29:31,137; -226
18:29:31,141; -266
18:29:31,145; -272
18:29:31,148; -289
18:29:31,152; -299
18:29:31,156; -302
18:29:31,160; -312
18:29:31,164; -320
18:29:31,168; -300
18:29:31,172; -339
18:29:31,176; -327
18:29:31,180; -315
18:29:31,184; -328
18:29:31,188; -329
18:29:31,191; -327
18:29:31,195; -325
18:29:31,199; -317
18:29:31,203; -334
18:29:31,207; -333
18:29:31,211; -301
18:29:31,215; -314
18:29:31,219; -309
18:29:31,223; -308
18:29:31,227; -307
18:29:31,230; -288
18:29:31,234; -316
18:29:31,238; -305
18:29:31,242; -301
18:29:31,246; -324
18:29:31,250; -319
18:29:31,254; -311
18:29:31,258; -306
18:29:31,262; -287
18:29:31,266; -311
18:29:31,270; -299
18:29:31,273; -303
18:29:31,277; -325
18:29:31,281; -320
18:29:31,285; -317
18:29:31,289; -326
18:29:31,293; -315
18:29:31,297; -330
18:29:31,301; -331
18:29:31,305; -324
18:29:31,309; -335
18:29:31,312; -346
18:29:31,316; -352
18:29:31,320; -351
18:29:31,324; -358
18:29:31,328; -375
18:29:31,332; -342
18:29:31,336; -378
18:29:31,340; -363
18:29:31,344; -365
18:29:31,348; -375
18:29:31,352; -371
18:29:31,355; -368
18:29:31,359; -384
18:29:31,363; -387
18:29:31,367; -400
18:29:31,371; -380
18:29:31,375; -406
18:29:31,379; -389
18:29:31,383; -401
18:29:31,387; -379
18:29:31,391; -383
18:29:31,395; -394
18:29:31,398; -406
18:29:31,402; -395
18:29:31,406; -408
18:29:31,410; -410
18:29:31,414; -393
18:29:31,418; -379
18:29:31,422; -388
18:29:31,426; -373
18:29:31,430; -418
18:29:31,434; -408
18:29:31,438; -411
18:29:31,441; -415
18:29:31,445; -408
18:29:31,449; -395
18:29:31,453; -413
18:29:31,457; -399
18:29:31,461; -400
18:29:31,465; -400
18:29:31,469; -416
18:29:31,473; -408
18:29:31,477; -398
18:29:31,480; -407
18:29:31,484; -421
18:29:31,488; -417
18:29:31,492; -396
18:29:31,496; -413
18:29:31,500; -408
18:29:31,504; -407
18:29:31,508; -411
18:29:31,512; -400
18:29:31,516; -422
18:29:31,520; -407
18:29:31,523; -394
18:29:31,527; -380
18:29:31,531; -356
18:29:31,535; -343
18:29:31,539; -327
18:29:31,543; -303
18:29:31,547; -320
18:29:31,551; -290
18:29:31,555; -265
18:29:31,559; -281
18:29:31,562; -270
18:29:31,566; -285
18:29:31,570; -295
18:29:31,574; -301
18:29:31,578; -308
18:29:31,582; -323
18:29:31,586; -337
18:29:31,590; -325
18:29:31,594; -376
18:29:31,598; -388
18:29:31,602; -401
18:29:31,605; -410
18:29:31,609; -450
18:29:31,613; -466
18:29:31,617; -427
18:29:31,621; -456
18:29:31,625; -447
18:29:31,629; -440
18:29:31,633; -450
18:29:31,637; -429
18:29:31,641; -461
18:29:31,645; -433
18:29:31,648; -438
18:29:31,652; -437
18:29:31,656; -452
18:29:31,660; -472
18:29:31,664; -492
18:29:31,668; -440
18:29:31,672; -408
18:29:31,676; -378
18:29:31,680; -256
18:29:31,684; 57
18:29:31,688; 717
18:29:31,691; 1558
18:29:31,695; 2007
18:29:31,699; 2201
18:29:31,703; 2141
18:29:31,707; 1495
18:29:31,711; 624
18:29:31,715; -190
18:29:31,719; -404
18:29:31,723; -494
18:29:31,727; -605
18:29:31,730; -428
18:29:31,734; -310
18:29:31,738; -286
18:29:31,742; -373
18:29:31,746; -397
18:29:31,750; -410
18:29:31,754; -452
18:29:31,758; -388
18:29:31,762; -394
18:29:31,766; -442
18:29:31,770; -407
18:29:31,773; -397
18:29:31,777; -394
18:29:31,781; -399
18:29:31,785; -373
18:29:31,789; -401
18:29:31,793; -359
18:29:31,797; -406
18:29:31,801; -373
18:29:31,805; -379
18:29:31,809; -374
18:29:31,812; -375
18:29:31,816; -366
18:29:31,820; -370
18:29:31,824; -330
18:29:31,828; -368
18:29:31,832; -352
18:29:31,836; -339
18:29:31,840; -322
18:29:31,844; -322
18:29:31,848; -314
18:29:31,852; -288
18:29:31,855; -269
18:29:31,859; -300
18:29:31,863; -277
18:29:31,867; -245
18:29:31,871; -252
18:29:31,875; -225
18:29:31,879; -210
18:29:31,883; -184
18:29:31,887; -143
18:29:31,891; -140
18:29:31,895; -95
18:29:31,898; -60
18:29:31,902; -37
18:29:31,906; -17
18:29:31,910; 24
18:29:31,914; 84
18:29:31,918; 122
18:29:31,922; 154
18:29:31,926; 224
18:29:31,930; 241
18:29:31,934; 281
18:29:31,938; 307
18:29:31,941; 340
18:29:31,945; 392
18:29:31,949; 401
18:29:31,953; 403
18:29:31,957; 408
18:29:31,961; 377
18:29:31,965; 361
18:29:31,969; 327
18:29:31,973; 233
18:29:31,977; 179
18:29:31,980; 132
18:29:31,984; 21
18:29:31,988; -52
18:29:31,992; -87
18:29:31,996; -132
18:29:32,000; -206
18:29:32,004; -206
18:29:32,008; -262
18:29:32,012; -252
18:29:32,016; -312
18:29:32,020; -302
18:29:32,023; -337
18:29:32,027; -351
18:29:32,031; -348
18:29:32,035; -377
18:29:32,039; -363
18:29:32,043; -379
18:29:32,047; -397
18:29:32,051; -387
18:29:32,055; -394
18:29:32,059; -381
18:29:32,062; -381
18:29:32,066; -385
18:29:32,070; -363
18:29:32,074; -369
18:29:32,078; -356
18:29:32,082; -379
18:29:32,086; -384
18:29:32,090; -364
18:29:32,094; -386
18:29:32,098; -369
18:29:32,102; -376
18:29:32,105; -370
18:29:32,109; -363
18:29:32,113; -372
18:29:32,117; -356
18:29:32,121; -335
18:29:32,125; -353
18:29:32,129; -331
18:29:32,133; -359
18:29:32,137; -345
18:29:32,141; -376
18:29:32,145; -365
18:29:32,148; -351
18:29:32,152; -370
18:29:32,156; -370
18:29:32,160; -379
18:29:32,164; -385
18:29:32,168; -370
18:29:32,172; -390
18:29:32,176; -374
18:29:32,180; -382
18:29:32,184; -375
18:29:32,188; -390
18:29:32,191; -392
18:29:32,195; -391
18:29:32,199; -378
18:29:32,203; -400
18:29:32,207; -395
18:29:32,211; -402
18:29:32,215; -419
18:29:32,219; -421
18:29:32,223; -406
18:29:32,227; -415
18:29:32,230; -379
18:29:32,234; -398
18:29:32,238; -375
18:29:32,242; -344
18:29:32,246; -345
18:29:32,250; -315
18:29:32,254; -304
18:29:32,258; -309
18:29:32,262; -278
18:29:32,266; -296
18:29:32,270; -299
18:29:32,273; -291
18:29:32,277; -285
18:29:32,281; -295
18:29:32,285; -298
18:29:32,289; -304
18:29:32,293; -310
18:29:32,297; -328
18:29:32,301; -347
18:29:32,305; -341
18:29:32,309; -354
18:29:32,312; -400
18:29:32,316; -417
18:29:32,320; -436
18:29:32,324; -454
18:29:32,328; -468
18:29:32,332; -449
18:29:32,336; -433
18:29:32,340; -460
18:29:32,344; -453
18:29:32,348; -446
18:29:32,352; -452
18:29:32,355; -422
18:29:32,359; -442
18:29:32,363; -437
18:29:32,367; -452
18:29:32,371; -472
18:29:32,375; -469
18:29:32,379; -487
18:29:32,383; -466
18:29:32,387; -438
18:29:32,391; -329
18:29:32,395; -191
18:29:32,398; 135
18:29:32,402; 912
18:29:32,406; 1300
18:29:32,410; 2045
18:29:32,414; 2291
18:29:32,418; 2296
18:29:32,422; 1914
18:29:32,426; 1126
18:29:32,430; 375
18:29:32,434; -257
18:29:32,438; -428
18:29:32,441; -543
18:29:32,445; -532
18:29:32,449; -271
18:29:32,453; -297
18:29:32,457; -332
18:29:32,461; -378
18:29:32,465; -403
18:29:32,469; -428
18:29:32,473; -355
18:29:32,477; -405
18:29:32,480; -438
18:29:32,484; -437
18:29:32,488; -394
18:29:32,492; -401
18:29:32,496; -384
18:29:32,500; -377
18:29:32,504; -410
18:29:32,508; -391
18:29:32,512; -365
18:29:32,516; -427
18:29:32,520; -381
18:29:32,523; -368
18:29:32,527; -385
18:29:32,531; -358
18:29:32,535; -352
18:29:32,539; -353
18:29:32,543; -345
18:29:32,547; -370
18:29:32,551; -344
18:29:32,555; -316
18:29:32,559; -329
18:29:32,562; -311
18:29:32,566; -304
18:29:32,570; -291
18:29:32,574; -284
18:29:32,578; -287
18:29:32,582; -255
18:29:32,586; -260
18:29:32,590; -225
18:29:32,594; -218
18:29:32,598; -191
18:29:32,602; -169
18:29:32,605; -112
18:29:32,609; -96
18:29:32,613; -75
18:29:32,617; -39
18:29:32,621; -10
18:29:32,625; 32
18:29:32,629; 73
18:29:32,633; 150
18:29:32,637; 195
18:29:32,641; 215
18:29:32,645; 287
18:29:32,648; 299
18:29:32,652; 316
18:29:32,656; 352
18:29:32,660; 388
18:29:32,664; 401
18:29:32,668; 416
18:29:32,672; 372
18:29:32,676; 366
18:29:32,680; 321
18:29:32,684; 258
18:29:32,688; 194
18:29:32,691; 108
18:29:32,695; 49
18:29:32,699; -8
18:29:32,703; -79
18:29:32,707; -142
18:29:32,711; -185
18:29:32,715; -216
18:29:32,719; -275
18:29:32,723; -294
18:29:32,727; -317
18:29:32,730; -308
18:29:32,734; -332
18:29:32,738; -361
18:29:32,742; -362
18:29:32,746; -394
18:29:32,750; -385
18:29:32,754; -402
18:29:32,758; -381
18:29:32,762; -388
18:29:32,766; -417
18:29:32,770; -380
18:29:32,773; -417
18:29:32,777; -408
18:29:32,781; -404
18:29:32,785; -400
18:29:32,789; -397
18:29:32,793; -398
18:29:32,797; -412
18:29:32,801; -395
18:29:32,805; -398
18:29:32,809; -385
18:29:32,812; -385
18:29:32,816; -388
18:29:32,820; -373
18:29:32,824; -375
18:29:32,828; -389
18:29:32,832; -380
18:29:32,836; -371
18:29:32,840; -380
18:29:32,844; -369
18:29:32,848; -368
18:29:32,852; -368
18:29:32,855; -350
18:29:32,859; -360
18:29:32,863; -367
18:29:32,867; -369
18:29:32,871; -356
18:29:32,875; -378
18:29:32,879; -364
18:29:32,883; -382
18:29:32,887; -364
18:29:32,891; -385
18:29:32,895; -397
18:29:32,898; -387
18:29:32,902; -373
18:29:32,906; -419
18:29:32,910; -384
18:29:32,914; -382
18:29:32,918; -388
18:29:32,922; -402
18:29:32,926; -408
18:29:32,930; -410
18:29:32,934; -419
18:29:32,938; -418
18:29:32,941; -407
18:29:32,945; -422
18:29:32,949; -398
18:29:32,953; -428
18:29:32,957; -418
18:29:32,961; -401
18:29:32,965; -402
18:29:32,969; -380
18:29:32,973; -352
18:29:32,977; -343
18:29:32,980; -326
18:29:32,984; -310
18:29:32,988; -318
18:29:32,992; -305
18:29:32,996; -307
18:29:33,000; -296
18:29:33,004; -275
18:29:33,008; -303
18:29:33,012; -293
18:29:33,016; -314
18:29:33,020; -335
18:29:33,023; -312
18:29:33,027; -336
18:29:33,031; -315
18:29:33,035; -346
18:29:33,039; -352
18:29:33,043; -377
18:29:33,047; -419
18:29:33,051; -425
18:29:33,055; -433
18:29:33,059; -461
18:29:33,062; -451
18:29:33,066; -460
18:29:33,070; -447
18:29:33,074; -429
18:29:33,078; -451
18:29:33,082; -442
18:29:33,086; -442
18:29:33,090; -454
18:29:33,094; -450
18:29:33,098; -456
18:29:33,102; -446
18:29:33,105; -432
18:29:33,109; -469
18:29:33,113; -465
18:29:33,117; -432
18:29:33,121; -333
18:29:33,125; -176
18:29:33,129; 140
18:29:33,133; 692
18:29:33,137; 1354
18:29:33,141; 1881
18:29:33,145; 2192
18:29:33,148; 2342
18:29:33,152; 2154
18:29:33,156; 1463
18:29:33,160; 704
18:29:33,164; 1
18:29:33,168; -387
18:29:33,172; -536
18:29:33,176; -595
18:29:33,180; -441
18:29:33,184; -236
18:29:33,188; -249
18:29:33,191; -344
18:29:33,195; -451
18:29:33,199; -352
18:29:33,203; -381
18:29:33,207; -418
18:29:33,211; -363
18:29:33,215; -447
18:29:33,219; -413
18:29:33,223; -434
18:29:33,227; -403
18:29:33,230; -397
18:29:33,234; -406
18:29:33,238; -370
18:29:33,242; -390
18:29:33,246; -404
18:29:33,250; -359
18:29:33,254; -384
18:29:33,258; -359
18:29:33,262; -353
18:29:33,266; -361
18:29:33,270; -346
18:29:33,273; -365
18:29:33,277; -348
18:29:33,281; -337
18:29:33,285; -334
18:29:33,289; -324
18:29:33,293; -303
18:29:33,297; -326
18:29:33,301; -304
18:29:33,305; -296
18:29:33,309; -284
18:29:33,312; -267
18:29:33,316; -255
18:29:33,320; -238
18:29:33,324; -216
18:29:33,328; -216
18:29:33,332; -191
18:29:33,336; -155
18:29:33,340; -131
18:29:33,344; -91
18:29:33,348; -64
18:29:33,352; -21
18:29:33,355; 24
18:29:33,359; 45
18:29:33,363; 103
18:29:33,367; 130
18:29:33,371; 179
18:29:33,375; 199
18:29:33,379; 255
18:29:33,383; 279
18:29:33,387; 303
18:29:33,391; 326
18:29:33,395; 342
18:29:33,398; 353
18:29:33,402; 348
18:29:33,406; 312
18:29:33,410; 287
18:29:33,414; 238
18:29:33,418; 163
18:29:33,422; 123
18:29:33,426; 66
18:29:33,430; -15
18:29:33,434; -54
18:29:33,438; -110
18:29:33,441; -151
18:29:33,445; -193
18:29:33,449; -220
18:29:33,453; -247
18:29:33,457; -283
18:29:33,461; -304
18:29:33,465; -321
18:29:33,469; -332
18:29:33,473; -345
18:29:33,477; -349
18:29:33,480; -338
18:29:33,484; -374
18:29:33,488; -357
18:29:33,492; -366
18:29:33,496; -370
18:29:33,500; -376
18:29:33,504; -388
18:29:33,508; -380
18:29:33,512; -370
18:29:33,516; -403
18:29:33,520; -387
18:29:33,523; -377
18:29:33,527; -383
18:29:33,531; -371
18:29:33,535; -363
18:29:33,539; -375
18:29:33,543; -336
18:29:33,547; -366
18:29:33,551; -365
18:29:33,555; -350
18:29:33,559; -361
18:29:33,563; -352
18:29:33,566; -365
18:29:33,570; -354
18:29:33,574; -331
18:29:33,578; -352
18:29:33,582; -343
18:29:33,586; -345
18:29:33,590; -346
18:29:33,594; -354
18:29:33,598; -343
18:29:33,602; -346
18:29:33,605; -336
18:29:33,609; -357
18:29:33,613; -362
18:29:33,617; -352
18:29:33,621; -370
18:29:33,625; -384
18:29:33,629; -369
18:29:33,633; -377
18:29:33,637; -366
18:29:33,641; -384
18:29:33,645; -381
18:29:33,648; -368
18:29:33,652; -386
18:29:33,656; -394
18:29:33,660; -383
18:29:33,664; -401
18:29:33,668; -366
18:29:33,672; -397
18:29:33,676; -390
18:29:33,680; -382
18:29:33,684; -394
18:29:33,688; -399
18:29:33,691; -407
18:29:33,695; -402
18:29:33,699; -405
18:29:33,703; -409
18:29:33,707; -410
18:29:33,711; -395
18:29:33,715; -403
18:29:33,719; -417
18:29:33,723; -411
18:29:33,727; -411
18:29:33,730; -395
18:29:33,734; -423
18:29:33,738; -402
18:29:33,742; -428
18:29:33,746; -431
18:29:33,750; -426
18:29:33,754; -439
18:29:33,758; -423
18:29:33,762; -405
18:29:33,766; -438
18:29:33,770; -406
18:29:33,773; -407
18:29:33,777; -416
18:29:33,781; -413
18:29:33,785; -417
18:29:33,789; -413
18:29:33,793; -406
18:29:33,797; -430
18:29:33,801; -413
18:29:33,805; -408
18:29:33,809; -416
18:29:33,812; -429
18:29:33,816; -404
18:29:33,820; -423
18:29:33,824; -397
18:29:33,828; -439
18:29:33,832; -421
18:29:33,836; -423
18:29:33,840; -432
18:29:33,844; -428
18:29:33,848; -414
18:29:33,852; -429
18:29:33,855; -414
18:29:33,859; -432
18:29:33,863; -431
18:29:33,867; -426
18:29:33,871; -420
18:29:33,875; -424
18:29:33,879; -428
18:29:33,883; -417
18:29:33,887; -409
18:29:33,891; -433
18:29:33,895; -419
18:29:33,898; -418
18:29:33,902; -424
18:29:33,906; -429
18:29:33,910; -420
18:29:33,914; -431
18:29:33,918; -413
18:29:33,922; -428
18:29:33,926; -433
18:29:33,930; -419
18:29:33,934; -428
18:29:33,938; -425
18:29:33,941; -425
18:29:33,945; -425
18:29:33,949; -405
18:29:33,953; -431
18:29:33,957; -421
18:29:33,961; -417
18:29:33,965; -428
18:29:33,969; -426
18:29:33,973; -430
18:29:33,977; -425
18:29:33,980; -415
18:29:33,984; -441
18:29:33,988; -427
18:29:33,992; -440
18:29:33,996; -421
18:29:34,000; -428
18:29:34,004; -435
18:29:34,008; -432
18:29:34,012; -412
18:29:34,016; -437
18:29:34,020; -437
18:29:34,023; -424
18:29:34,027; -429
18:29:34,031; -428
18:29:34,035; -428
18:29:34,039; -402
18:29:34,043; -378
18:29:34,047; -393
18:29:34,051; -354
18:29:34,055; -355
18:29:34,059; -347
18:29:34,062; -343
18:29:34,066; -319
18:29:34,070; -312
18:29:34,074; -296
18:29:34,078; -334
18:29:34,082; -318
18:29:34,086; -348
18:29:34,090; -353
18:29:34,094; -359
18:29:34,098; -365
18:29:34,102; -373
18:29:34,105; -361
18:29:34,109; -387
18:29:34,113; -412
18:29:34,117; -425
18:29:34,121; -437
18:29:34,125; -465
18:29:34,129; -467
18:29:34,133; -460
18:29:34,137; -438
18:29:34,141; -447
18:29:34,145; -462
18:29:34,148; -439
18:29:34,152; -452
18:29:34,156; -459
18:29:34,160; -436
18:29:34,164; -449
18:29:34,168; -431
18:29:34,172; -466
18:29:34,176; -484
18:29:34,180; -465
18:29:34,184; -419
18:29:34,188; -284
18:29:34,191; -68
18:29:34,195; 352
18:29:34,199; 907
18:29:34,203; 1519
18:29:34,207; 2038
18:29:34,211; 2283
18:29:34,215; 2212
18:29:34,219; 1833
18:29:34,223; 1143
18:29:34,227; 158
18:29:34,230; -295
18:29:34,234; -455
18:29:34,238; -584
18:29:34,242; -420
18:29:34,246; -289
18:29:34,250; -252
18:29:34,254; -281
18:29:34,258; -501
18:29:34,262; -440
18:29:34,266; -414
18:29:34,270; -394
18:29:34,273; -378
18:29:34,277; -418
18:29:34,281; -400
18:29:34,285; -443
18:29:34,289; -410
18:29:34,293; -412
18:29:34,297; -411
18:29:34,301; -451
18:29:34,305; -409
18:29:34,309; -385
18:29:34,312; -391
18:29:34,316; -423
18:29:34,320; -392
18:29:34,324; -377
18:29:34,328; -397
18:29:34,332; -402
18:29:34,336; -377
18:29:34,340; -371
18:29:34,344; -371
18:29:34,348; -352
18:29:34,352; -360
18:29:34,355; -325
18:29:34,359; -338
18:29:34,363; -324
18:29:34,367; -313
18:29:34,371; -320
18:29:34,375; -282
18:29:34,379; -299
18:29:34,383; -270
18:29:34,387; -260
18:29:34,391; -243
18:29:34,395; -230
18:29:34,398; -204
18:29:34,402; -188
18:29:34,406; -158
18:29:34,410; -134
18:29:34,414; -112
18:29:34,418; -62
18:29:34,422; -50
18:29:34,426; -4
18:29:34,430; 24
18:29:34,434; 56
18:29:34,438; 92
18:29:34,441; 119
18:29:34,445; 141
18:29:34,449; 215
18:29:34,453; 202
18:29:34,457; 251
18:29:34,461; 272
18:29:34,465; 282
18:29:34,469; 301
18:29:34,473; 301
18:29:34,477; 294
18:29:34,480; 279
18:29:34,484; 216
18:29:34,488; 193
18:29:34,492; 137
18:29:34,496; 68
18:29:34,500; 7
18:29:34,504; -55
18:29:34,508; -101
18:29:34,512; -147
18:29:34,516; -190
18:29:34,520; -212
18:29:34,523; -261
18:29:34,527; -283
18:29:34,531; -314
18:29:34,535; -326
18:29:34,539; -342
18:29:34,543; -326
18:29:34,547; -366
18:29:34,551; -361
18:29:34,555; -375
18:29:34,559; -390
18:29:34,562; -386
18:29:34,566; -396
18:29:34,570; -381
18:29:34,574; -385
18:29:34,578; -397
18:29:34,582; -382
18:29:34,586; -395
18:29:34,590; -391
18:29:34,594; -388
18:29:34,598; -378
18:29:34,602; -386
18:29:34,605; -356
18:29:34,609; -371
18:29:34,613; -373
18:29:34,617; -373
18:29:34,621; -367
18:29:34,625; -370
18:29:34,629; -376
18:29:34,633; -368
18:29:34,637; -367
18:29:34,641; -381
18:29:34,645; -374
18:29:34,648; -373
18:29:34,652; -366
18:29:34,656; -380
18:29:34,660; -378
18:29:34,664; -384
18:29:34,668; -367
18:29:34,672; -403
18:29:34,676; -379
18:29:34,680; -386
18:29:34,684; -387
18:29:34,688; -404
18:29:34,691; -403
18:29:34,695; -394
18:29:34,699; -400
18:29:34,703; -410
18:29:34,707; -408
18:29:34,711; -404
18:29:34,715; -418
18:29:34,719; -417
18:29:34,723; -418
18:29:34,727; -430
18:29:34,730; -402
18:29:34,734; -437
18:29:34,738; -424
18:29:34,742; -425
18:29:34,746; -444
18:29:34,750; -427
18:29:34,754; -439
18:29:34,758; -446
18:29:34,762; -424
18:29:34,766; -459
18:29:34,770; -435
18:29:34,773; -456
18:29:34,777; -442
18:29:34,781; -443
18:29:34,785; -447
18:29:34,789; -441
18:29:34,793; -444
18:29:34,797; -457
18:29:34,801; -455
18:29:34,805; -457
18:29:34,809; -456
18:29:34,812; -463
18:29:34,816; -452
18:29:34,820; -451
18:29:34,824; -452
18:29:34,828; -463
18:29:34,832; -458
18:29:34,836; -461
18:29:34,840; -460
18:29:34,844; -470
18:29:34,848; -454
18:29:34,852; -459
18:29:34,855; -449
18:29:34,859; -460
18:29:34,863; -466
18:29:34,867; -461
18:29:34,871; -464
18:29:34,875; -453
18:29:34,879; -465
18:29:34,883; -459
18:29:34,887; -442
18:29:34,891; -464
18:29:34,895; -464
18:29:34,898; -460
18:29:34,902; -456
18:29:34,906; -467
18:29:34,910; -466
18:29:34,914; -465
18:29:34,918; -455
18:29:34,922; -461
18:29:34,926; -457
18:29:34,930; -446
18:29:34,934; -448
18:29:34,937; -459
18:29:34,941; -446
18:29:34,945; -460
18:29:34,949; -433
18:29:34,953; -452
18:29:34,957; -449
18:29:34,961; -440
18:29:34,965; -462
18:29:34,969; -447
18:29:34,973; -446
18:29:34,977; -448
18:29:34,980; -430
18:29:34,984; -461
18:29:34,988; -444
18:29:34,992; -455
18:29:34,996; -451
18:29:35,000; -450
18:29:35,004; -443
18:29:35,008; -450
18:29:35,012; -435
18:29:35,016; -455
18:29:35,020; -449
18:29:35,023; -446
18:29:35,027; -444
18:29:35,031; -449
18:29:35,035; -444
18:29:35,039; -444
18:29:35,043; -428
18:29:35,047; -450
18:29:35,051; -443
18:29:35,055; -444
18:29:35,059; -448
18:29:35,063; -454
18:29:35,066; -447
18:29:35,070; -436
18:29:35,074; -407
18:29:35,078; -440
18:29:35,082; -392
18:29:35,086; -389
18:29:35,090; -389
18:29:35,094; -359
18:29:35,098; -347
18:29:35,102; -333
18:29:35,105; -316
18:29:35,109; -316
18:29:35,113; -303
18:29:35,117; -326
18:29:35,121; -313
18:29:35,125; -335
18:29:35,129; -362
18:29:35,133; -358
18:29:35,137; -351
18:29:35,141; -392
18:29:35,145; -380
18:29:35,148; -379
18:29:35,152; -408
18:29:35,156; -437
18:29:35,160; -437
18:29:35,164; -454
18:29:35,168; -448
18:29:35,172; -472
18:29:35,176; -446
18:29:35,180; -448
18:29:35,184; -459
18:29:35,188; -462
18:29:35,191; -468
18:29:35,195; -451
18:29:35,199; -444
18:29:35,203; -470
18:29:35,207; -459
18:29:35,211; -463
18:29:35,215; -499
18:29:35,219; -478
18:29:35,223; -441
18:29:35,227; -319
18:29:35,230; -152
18:29:35,234; 156
18:29:35,238; 843
18:29:35,242; 1375
18:29:35,246; 1852
18:29:35,250; 2166
18:29:35,254; 2171
18:29:35,258; 1766
18:29:35,262; 1017
18:29:35,266; 353
18:29:35,270; -189
18:29:35,273; -487
18:29:35,277; -458
18:29:35,281; -519
18:29:35,285; -274
18:29:35,289; -247
18:29:35,293; -347
18:29:35,297; -398
18:29:35,301; -473
18:29:35,305; -449
18:29:35,309; -433
18:29:35,312; -425
18:29:35,316; -455
18:29:35,320; -443
18:29:35,324; -428
18:29:35,328; -409
18:29:35,332; -434
18:29:35,336; -419
18:29:35,340; -401
18:29:35,344; -422
18:29:35,348; -410
18:29:35,352; -395
18:29:35,355; -388
18:29:35,359; -389
18:29:35,363; -388
18:29:35,367; -395
18:29:35,371; -382
18:29:35,375; -385
18:29:35,379; -377
18:29:35,383; -360
18:29:35,387; -345
18:29:35,391; -352
18:29:35,395; -334
18:29:35,398; -326
18:29:35,402; -322
18:29:35,406; -335
18:29:35,410; -301
18:29:35,414; -289
18:29:35,418; -283
18:29:35,422; -286
18:29:35,426; -260
18:29:35,430; -237
18:29:35,434; -232
18:29:35,438; -216
18:29:35,441; -183
18:29:35,445; -156
18:29:35,449; -135
18:29:35,453; -110
18:29:35,457; -78
18:29:35,461; -30
18:29:35,465; -12
18:29:35,469; 37
18:29:35,473; 70
18:29:35,477; 113
18:29:35,480; 141
18:29:35,484; 177
18:29:35,488; 210
18:29:35,492; 242
18:29:35,496; 269
18:29:35,500; 287
18:29:35,504; 303
18:29:35,508; 322
18:29:35,512; 319
18:29:35,516; 309
18:29:35,520; 297
18:29:35,523; 247
18:29:35,527; 208
18:29:35,531; 144
18:29:35,535; 81
18:29:35,539; 19
18:29:35,543; -20
18:29:35,547; -93
18:29:35,551; -136
18:29:35,555; -172
18:29:35,559; -229
18:29:35,562; -248
18:29:35,566; -282
18:29:35,570; -301
18:29:35,574; -317
18:29:35,578; -335
18:29:35,582; -359
18:29:35,586; -359
18:29:35,590; -365
18:29:35,594; -385
18:29:35,598; -377
18:29:35,602; -390
18:29:35,605; -384
18:29:35,609; -398
18:29:35,613; -402
18:29:35,617; -385
18:29:35,621; -382
18:29:35,625; -392
18:29:35,629; -390
18:29:35,633; -381
18:29:35,637; -370
18:29:35,641; -389
18:29:35,645; -376
18:29:35,648; -360
18:29:35,652; -377
18:29:35,656; -371
18:29:35,660; -364
18:29:35,664; -370
18:29:35,668; -357
18:29:35,672; -375
18:29:35,676; -367
18:29:35,680; -370
18:29:35,684; -383
18:29:35,688; -367
18:29:35,691; -369
18:29:35,695; -361
18:29:35,699; -350
18:29:35,703; -378
18:29:35,707; -380
18:29:35,711; -378
18:29:35,715; -389
18:29:35,719; -390
18:29:35,723; -386
