Signal Type: ECG_Type
Start Time: 26/04/2023 18:59:48
Sample Rate: 256
Length: 77120
Unit: µV

Data:
18:59:48,000; 0
18:59:48,004; 0
18:59:48,008; 0
18:59:48,012; 0
18:59:48,016; 0
18:59:48,020; 0
18:59:48,023; 0
18:59:48,027; 0
18:59:48,031; 0
18:59:48,035; 0
18:59:48,039; 0
18:59:48,043; 0
18:59:48,047; 0
18:59:48,051; 0
18:59:48,055; 0
18:59:48,059; 0
18:59:48,063; 0
18:59:48,066; 0
18:59:48,070; 0
18:59:48,074; 0
18:59:48,078; 0
18:59:48,082; 0
18:59:48,086; 0
18:59:48,090; 0
18:59:48,094; 0
18:59:48,098; 0
18:59:48,102; 0
18:59:48,105; 0
18:59:48,109; 0
18:59:48,113; 0
18:59:48,117; 0
18:59:48,121; 0
18:59:48,125; 0
18:59:48,129; 0
18:59:48,133; 0
18:59:48,137; 0
18:59:48,141; 0
18:59:48,145; 0
18:59:48,148; 0
18:59:48,152; 0
18:59:48,156; 0
18:59:48,160; 0
18:59:48,164; 0
18:59:48,168; 0
18:59:48,172; 0
18:59:48,176; 0
18:59:48,180; 0
18:59:48,184; 0
18:59:48,188; 0
18:59:48,191; 0
18:59:48,195; 0
18:59:48,199; 0
18:59:48,203; 0
18:59:48,207; 0
18:59:48,211; 0
18:59:48,215; 0
18:59:48,219; 0
18:59:48,223; 0
18:59:48,227; 0
18:59:48,230; 0
18:59:48,234; 0
18:59:48,238; 0
18:59:48,242; 0
18:59:48,246; 0
18:59:48,250; 0
18:59:48,254; 0
18:59:48,258; 0
18:59:48,262; 0
18:59:48,266; 0
18:59:48,270; 0
18:59:48,273; 0
18:59:48,277; 0
18:59:48,281; 0
18:59:48,285; 0
18:59:48,289; 0
18:59:48,293; 0
18:59:48,297; 0
18:59:48,301; 0
18:59:48,305; 0
18:59:48,309; 0
18:59:48,313; 0
18:59:48,316; 0
18:59:48,320; 0
18:59:48,324; 0
18:59:48,328; 0
18:59:48,332; 0
18:59:48,336; 0
18:59:48,340; 0
18:59:48,344; 0
18:59:48,348; 0
18:59:48,352; 0
18:59:48,355; 0
18:59:48,359; 0
18:59:48,363; 0
18:59:48,367; 0
18:59:48,371; 0
18:59:48,375; 0
18:59:48,379; 0
18:59:48,383; 0
18:59:48,387; 0
18:59:48,391; 0
18:59:48,395; 0
18:59:48,398; 0
18:59:48,402; 0
18:59:48,406; 0
18:59:48,410; 0
18:59:48,414; 0
18:59:48,418; 0
18:59:48,422; 0
18:59:48,426; 0
18:59:48,430; 0
18:59:48,434; 0
18:59:48,438; 0
18:59:48,441; 0
18:59:48,445; 0
18:59:48,449; 0
18:59:48,453; 0
18:59:48,457; 0
18:59:48,461; 0
18:59:48,465; 0
18:59:48,469; 0
18:59:48,473; 0
18:59:48,477; 0
18:59:48,480; 0
18:59:48,484; 0
18:59:48,488; 0
18:59:48,492; 0
18:59:48,496; 0
18:59:48,500; 0
18:59:48,504; 0
18:59:48,508; 0
18:59:48,512; 0
18:59:48,516; 0
18:59:48,520; 0
18:59:48,523; 0
18:59:48,527; 0
18:59:48,531; 0
18:59:48,535; 0
18:59:48,539; 0
18:59:48,543; 0
18:59:48,547; 0
18:59:48,551; 0
18:59:48,555; 0
18:59:48,559; 0
18:59:48,562; 0
18:59:48,566; 0
18:59:48,570; 0
18:59:48,574; 0
18:59:48,578; 0
18:59:48,582; 0
18:59:48,586; 0
18:59:48,590; 0
18:59:48,594; 0
18:59:48,598; 0
18:59:48,602; 0
18:59:48,605; 0
18:59:48,609; 0
18:59:48,613; 0
18:59:48,617; 0
18:59:48,621; 0
18:59:48,625; 0
18:59:48,629; 0
18:59:48,633; 0
18:59:48,637; 0
18:59:48,641; 0
18:59:48,645; 0
18:59:48,648; 0
18:59:48,652; 0
18:59:48,656; 0
18:59:48,660; 0
18:59:48,664; 0
18:59:48,668; 0
18:59:48,672; 0
18:59:48,676; 0
18:59:48,680; 0
18:59:48,684; 0
18:59:48,688; 0
18:59:48,691; 0
18:59:48,695; 0
18:59:48,699; 0
18:59:48,703; 0
18:59:48,707; 0
18:59:48,711; 0
18:59:48,715; 0
18:59:48,719; 0
18:59:48,723; 0
18:59:48,727; 0
18:59:48,730; 0
18:59:48,734; 0
18:59:48,738; 0
18:59:48,742; 0
18:59:48,746; 0
18:59:48,750; 1172
18:59:48,754; 1050
18:59:48,758; 1465
18:59:48,762; 1869
18:59:48,766; 1835
18:59:48,770; 1593
18:59:48,773; 1510
18:59:48,777; 1635
18:59:48,781; 1852
18:59:48,785; 1861
18:59:48,789; 1819
18:59:48,793; 1757
18:59:48,797; 1848
18:59:48,801; 1926
18:59:48,805; 1921
18:59:48,809; 1955
18:59:48,812; 1949
18:59:48,816; 2005
18:59:48,820; 2030
18:59:48,824; 2051
18:59:48,828; 2063
18:59:48,832; 2060
18:59:48,836; 2080
18:59:48,840; 2072
18:59:48,844; 2036
18:59:48,848; 2080
18:59:48,852; 2012
18:59:48,855; 2033
18:59:48,859; 1976
18:59:48,863; 2001
18:59:48,867; 1970
18:59:48,871; 1948
18:59:48,875; 1981
18:59:48,879; 1951
18:59:48,883; 1949
18:59:48,887; 1906
18:59:48,891; 1910
18:59:48,895; 1906
18:59:48,898; 1895
18:59:48,902; 1923
18:59:48,906; 1922
18:59:48,910; 1895
18:59:48,914; 1916
18:59:48,918; 1865
18:59:48,922; 1945
18:59:48,926; 1932
18:59:48,930; 1960
18:59:48,934; 1973
18:59:48,938; 1984
18:59:48,941; 1975
18:59:48,945; 1991
18:59:48,949; 2015
18:59:48,953; 2035
18:59:48,957; 2033
18:59:48,961; 2052
18:59:48,965; 2048
18:59:48,969; 2072
18:59:48,973; 2115
18:59:48,977; 2113
18:59:48,980; 2146
18:59:48,984; 2134
18:59:48,988; 2146
18:59:48,992; 2160
18:59:48,996; 2195
18:59:49,000; 2172
18:59:49,004; 2201
18:59:49,008; 2190
18:59:49,012; 2195
18:59:49,016; 2206
18:59:49,020; 2211
18:59:49,023; 2210
18:59:49,027; 2246
18:59:49,031; 2229
18:59:49,035; 2273
18:59:49,039; 2237
18:59:49,043; 2272
18:59:49,047; 2248
18:59:49,051; 2238
18:59:49,055; 2260
18:59:49,059; 2252
18:59:49,062; 2294
18:59:49,066; 2298
18:59:49,070; 2266
18:59:49,074; 2319
18:59:49,078; 2263
18:59:49,082; 2326
18:59:49,086; 2294
18:59:49,090; 2296
18:59:49,094; 2359
18:59:49,098; 2302
18:59:49,102; 2363
18:59:49,105; 2359
18:59:49,109; 2354
18:59:49,113; 2401
18:59:49,117; 2361
18:59:49,121; 2383
18:59:49,125; 2400
18:59:49,129; 2431
18:59:49,133; 2410
18:59:49,137; 2428
18:59:49,141; 2439
18:59:49,145; 2428
18:59:49,148; 2452
18:59:49,152; 2444
18:59:49,156; 2475
18:59:49,160; 2483
18:59:49,164; 2464
18:59:49,168; 2513
18:59:49,172; 2479
18:59:49,176; 2513
18:59:49,180; 2534
18:59:49,184; 2535
18:59:49,188; 2571
18:59:49,191; 2543
18:59:49,195; 2599
18:59:49,199; 2560
18:59:49,203; 2575
18:59:49,207; 2573
18:59:49,211; 2547
18:59:49,215; 2575
18:59:49,219; 2575
18:59:49,223; 2572
18:59:49,227; 2593
18:59:49,230; 2599
18:59:49,234; 2606
18:59:49,238; 2601
18:59:49,242; 2625
18:59:49,246; 2618
18:59:49,250; 2617
18:59:49,254; 2642
18:59:49,258; 2621
18:59:49,262; 2647
18:59:49,266; 2652
18:59:49,270; 2636
18:59:49,273; 2644
18:59:49,277; 2611
18:59:49,281; 2663
18:59:49,285; 2631
18:59:49,289; 2659
18:59:49,293; 2650
18:59:49,297; 2638
18:59:49,301; 2677
18:59:49,305; 2667
18:59:49,309; 2725
18:59:49,312; 2700
18:59:49,316; 2722
18:59:49,320; 2755
18:59:49,324; 2721
18:59:49,328; 2768
18:59:49,332; 2789
18:59:49,336; 2852
18:59:49,340; 2833
18:59:49,344; 2860
18:59:49,348; 2884
18:59:49,352; 2888
18:59:49,355; 2921
18:59:49,359; 2896
18:59:49,363; 2964
18:59:49,367; 2973
18:59:49,371; 2956
18:59:49,375; 2998
18:59:49,379; 2938
18:59:49,383; 2964
18:59:49,387; 2931
18:59:49,391; 2909
18:59:49,395; 2925
18:59:49,398; 2874
18:59:49,402; 2918
18:59:49,406; 2881
18:59:49,410; 2855
18:59:49,414; 2889
18:59:49,418; 2811
18:59:49,422; 2827
18:59:49,426; 2843
18:59:49,430; 2797
18:59:49,434; 2856
18:59:49,438; 2837
18:59:49,441; 2847
18:59:49,445; 2827
18:59:49,449; 2839
18:59:49,453; 2846
18:59:49,457; 2823
18:59:49,461; 2853
18:59:49,465; 2847
18:59:49,469; 2830
18:59:49,473; 2816
18:59:49,477; 2841
18:59:49,480; 2875
18:59:49,484; 2945
18:59:49,488; 3144
18:59:49,492; 3517
18:59:49,496; 3931
18:59:49,500; 4516
18:59:49,504; 4986
18:59:49,508; 5280
18:59:49,512; 5295
18:59:49,516; 5017
18:59:49,520; 4468
18:59:49,523; 3743
18:59:49,527; 3163
18:59:49,531; 2766
18:59:49,535; 2690
18:59:49,539; 2694
18:59:49,543; 2846
18:59:49,547; 2946
18:59:49,551; 2877
18:59:49,555; 2907
18:59:49,559; 2768
18:59:49,563; 2780
18:59:49,566; 2819
18:59:49,570; 2817
18:59:49,574; 2873
18:59:49,578; 2781
18:59:49,582; 2801
18:59:49,586; 2809
18:59:49,590; 2830
18:59:49,594; 2828
18:59:49,598; 2803
18:59:49,602; 2853
18:59:49,605; 2829
18:59:49,609; 2848
18:59:49,613; 2837
18:59:49,617; 2828
18:59:49,621; 2863
18:59:49,625; 2856
18:59:49,629; 2870
18:59:49,633; 2852
18:59:49,637; 2888
18:59:49,641; 2857
18:59:49,645; 2858
18:59:49,648; 2892
18:59:49,652; 2876
18:59:49,656; 2903
18:59:49,660; 2910
18:59:49,664; 2907
18:59:49,668; 2941
18:59:49,672; 2923
18:59:49,676; 2969
18:59:49,680; 2960
18:59:49,684; 2968
18:59:49,688; 2997
18:59:49,691; 2981
18:59:49,695; 3038
18:59:49,699; 3007
18:59:49,703; 3037
18:59:49,707; 3072
18:59:49,711; 3074
18:59:49,715; 3114
18:59:49,719; 3092
18:59:49,723; 3179
18:59:49,727; 3174
18:59:49,730; 3182
18:59:49,734; 3216
18:59:49,738; 3193
18:59:49,742; 3269
18:59:49,746; 3244
18:59:49,750; 3259
18:59:49,754; 3311
18:59:49,758; 3292
18:59:49,762; 3330
18:59:49,766; 3305
18:59:49,770; 3330
18:59:49,773; 3323
18:59:49,777; 3285
18:59:49,781; 3271
18:59:49,785; 3211
18:59:49,789; 3184
18:59:49,793; 3175
18:59:49,797; 3088
18:59:49,801; 3059
18:59:49,805; 3008
18:59:49,809; 2956
18:59:49,813; 2921
18:59:49,816; 2881
18:59:49,820; 2872
18:59:49,824; 2834
18:59:49,828; 2785
18:59:49,832; 2766
18:59:49,836; 2759
18:59:49,840; 2716
18:59:49,844; 2703
18:59:49,848; 2671
18:59:49,852; 2647
18:59:49,855; 2652
18:59:49,859; 2591
18:59:49,863; 2603
18:59:49,867; 2592
18:59:49,871; 2567
18:59:49,875; 2593
18:59:49,879; 2571
18:59:49,883; 2596
18:59:49,887; 2601
18:59:49,891; 2564
18:59:49,895; 2577
18:59:49,898; 2539
18:59:49,902; 2590
18:59:49,906; 2550
18:59:49,910; 2549
18:59:49,914; 2583
18:59:49,918; 2540
18:59:49,922; 2561
18:59:49,926; 2553
18:59:49,930; 2560
18:59:49,934; 2582
18:59:49,938; 2531
18:59:49,941; 2555
18:59:49,945; 2524
18:59:49,949; 2544
18:59:49,953; 2521
18:59:49,957; 2497
18:59:49,961; 2516
18:59:49,965; 2465
18:59:49,969; 2477
18:59:49,973; 2463
18:59:49,977; 2470
18:59:49,980; 2467
18:59:49,984; 2445
18:59:49,988; 2461
18:59:49,992; 2444
18:59:49,996; 2441
18:59:50,000; 2452
18:59:50,004; 2418
18:59:50,008; 2422
18:59:50,012; 2401
18:59:50,016; 2406
18:59:50,020; 2400
18:59:50,023; 2381
18:59:50,027; 2408
18:59:50,031; 2370
18:59:50,035; 2397
18:59:50,039; 2381
18:59:50,043; 2388
18:59:50,047; 2394
18:59:50,051; 2385
18:59:50,055; 2420
18:59:50,059; 2398
18:59:50,063; 2412
18:59:50,066; 2433
18:59:50,070; 2420
18:59:50,074; 2442
18:59:50,078; 2433
18:59:50,082; 2459
18:59:50,086; 2432
18:59:50,090; 2418
18:59:50,094; 2388
18:59:50,098; 2360
18:59:50,102; 2373
18:59:50,105; 2321
18:59:50,109; 2329
18:59:50,113; 2325
18:59:50,117; 2277
18:59:50,121; 2275
18:59:50,125; 2219
18:59:50,129; 2205
18:59:50,133; 2197
18:59:50,137; 2160
18:59:50,141; 2190
18:59:50,145; 2146
18:59:50,148; 2160
18:59:50,152; 2163
18:59:50,156; 2140
18:59:50,160; 2127
18:59:50,164; 2125
18:59:50,168; 2144
18:59:50,172; 2109
18:59:50,176; 2118
18:59:50,180; 2096
18:59:50,184; 2107
18:59:50,188; 2099
18:59:50,191; 2034
18:59:50,195; 2072
18:59:50,199; 2106
18:59:50,203; 2225
18:59:50,207; 2456
18:59:50,211; 2792
18:59:50,215; 3296
18:59:50,219; 3710
18:59:50,223; 4255
18:59:50,227; 4313
18:59:50,230; 4355
18:59:50,234; 4119
18:59:50,238; 3409
18:59:50,242; 2745
18:59:50,246; 2158
18:59:50,250; 1877
18:59:50,254; 1920
18:59:50,258; 1880
18:59:50,262; 2101
18:59:50,266; 2165
18:59:50,270; 2110
18:59:50,273; 2038
18:59:50,277; 1912
18:59:50,281; 2018
18:59:50,285; 2004
18:59:50,289; 2018
18:59:50,293; 1992
18:59:50,297; 1961
18:59:50,301; 1971
18:59:50,305; 1974
18:59:50,309; 2002
18:59:50,312; 1968
18:59:50,316; 1987
18:59:50,320; 1978
18:59:50,324; 1975
18:59:50,328; 1991
18:59:50,332; 1955
18:59:50,336; 1995
18:59:50,340; 1971
18:59:50,344; 1991
18:59:50,348; 2010
18:59:50,352; 1961
18:59:50,355; 1993
18:59:50,359; 1982
18:59:50,363; 1962
18:59:50,367; 1996
18:59:50,371; 1971
18:59:50,375; 2011
18:59:50,379; 1996
18:59:50,383; 2017
18:59:50,387; 2014
18:59:50,391; 1996
18:59:50,395; 2044
18:59:50,398; 2028
18:59:50,402; 2043
18:59:50,406; 2061
18:59:50,410; 2062
18:59:50,414; 2090
18:59:50,418; 2077
18:59:50,422; 2113
18:59:50,426; 2137
18:59:50,430; 2160
18:59:50,434; 2181
18:59:50,438; 2190
18:59:50,441; 2239
18:59:50,445; 2245
18:59:50,449; 2286
18:59:50,453; 2283
18:59:50,457; 2322
18:59:50,461; 2336
18:59:50,465; 2327
18:59:50,469; 2372
18:59:50,473; 2383
18:59:50,477; 2395
18:59:50,480; 2421
18:59:50,484; 2372
18:59:50,488; 2381
18:59:50,492; 2340
18:59:50,496; 2303
18:59:50,500; 2276
18:59:50,504; 2214
18:59:50,508; 2195
18:59:50,512; 2114
18:59:50,516; 2084
18:59:50,520; 2004
18:59:50,523; 1997
18:59:50,527; 1948
18:59:50,531; 1901
18:59:50,535; 1897
18:59:50,539; 1854
18:59:50,543; 1855
18:59:50,547; 1817
18:59:50,551; 1803
18:59:50,555; 1813
18:59:50,559; 1741
18:59:50,562; 1781
18:59:50,566; 1715
18:59:50,570; 1719
18:59:50,574; 1741
18:59:50,578; 1676
18:59:50,582; 1717
18:59:50,586; 1704
18:59:50,590; 1696
18:59:50,594; 1737
18:59:50,598; 1691
18:59:50,602; 1729
18:59:50,605; 1702
18:59:50,609; 1690
18:59:50,613; 1712
18:59:50,617; 1675
18:59:50,621; 1706
18:59:50,625; 1699
18:59:50,629; 1682
18:59:50,633; 1694
18:59:50,637; 1692
18:59:50,641; 1690
18:59:50,645; 1675
18:59:50,648; 1673
18:59:50,652; 1655
18:59:50,656; 1667
18:59:50,660; 1647
18:59:50,664; 1643
18:59:50,668; 1647
18:59:50,672; 1617
18:59:50,676; 1651
18:59:50,680; 1618
18:59:50,684; 1614
18:59:50,688; 1597
18:59:50,691; 1569
18:59:50,695; 1576
18:59:50,699; 1545
18:59:50,703; 1553
18:59:50,707; 1571
18:59:50,711; 1528
18:59:50,715; 1565
18:59:50,719; 1552
18:59:50,723; 1586
18:59:50,727; 1612
18:59:50,730; 1607
18:59:50,734; 1633
18:59:50,738; 1591
18:59:50,742; 1619
18:59:50,746; 1613
18:59:50,750; 1644
18:59:50,754; 1659
18:59:50,758; 1616
18:59:50,762; 1649
18:59:50,766; 1588
18:59:50,770; 1580
18:59:50,773; 1573
18:59:50,777; 1533
18:59:50,781; 1557
18:59:50,785; 1519
18:59:50,789; 1509
18:59:50,793; 1467
18:59:50,797; 1445
18:59:50,801; 1435
18:59:50,805; 1383
18:59:50,809; 1407
18:59:50,812; 1369
18:59:50,816; 1366
18:59:50,820; 1389
18:59:50,824; 1353
18:59:50,828; 1325
18:59:50,832; 1325
18:59:50,836; 1339
18:59:50,840; 1328
18:59:50,844; 1323
18:59:50,848; 1362
18:59:50,852; 1309
18:59:50,855; 1334
18:59:50,859; 1314
18:59:50,863; 1263
18:59:50,867; 1281
18:59:50,871; 1304
18:59:50,875; 1390
18:59:50,879; 1465
18:59:50,883; 1778
18:59:50,887; 2285
18:59:50,891; 2717
18:59:50,895; 3267
18:59:50,898; 3590
18:59:50,902; 3677
18:59:50,906; 3531
18:59:50,910; 3161
18:59:50,914; 2400
18:59:50,918; 1793
18:59:50,922; 1289
18:59:50,926; 1008
18:59:50,930; 1038
18:59:50,934; 1173
18:59:50,938; 1196
18:59:50,941; 1396
18:59:50,945; 1269
18:59:50,949; 1224
18:59:50,953; 1136
18:59:50,957; 1193
18:59:50,961; 1234
18:59:50,965; 1219
18:59:50,969; 1181
18:59:50,973; 1181
18:59:50,977; 1196
18:59:50,980; 1218
18:59:50,984; 1191
18:59:50,988; 1203
18:59:50,992; 1202
18:59:50,996; 1209
18:59:51,000; 1217
18:59:51,004; 1205
18:59:51,008; 1207
18:59:51,012; 1199
18:59:51,016; 1211
18:59:51,020; 1202
18:59:51,023; 1219
18:59:51,027; 1218
18:59:51,031; 1201
18:59:51,035; 1232
18:59:51,039; 1211
18:59:51,043; 1233
18:59:51,047; 1213
18:59:51,051; 1200
18:59:51,055; 1239
18:59:51,059; 1189
18:59:51,063; 1257
18:59:51,066; 1260
18:59:51,070; 1249
18:59:51,074; 1315
18:59:51,078; 1275
18:59:51,082; 1308
18:59:51,086; 1303
18:59:51,090; 1305
18:59:51,094; 1345
18:59:51,098; 1336
18:59:51,102; 1386
18:59:51,105; 1405
18:59:51,109; 1388
18:59:51,113; 1475
18:59:51,117; 1452
18:59:51,121; 1503
18:59:51,125; 1515
18:59:51,129; 1529
18:59:51,133; 1557
18:59:51,137; 1552
18:59:51,141; 1570
18:59:51,145; 1563
18:59:51,148; 1608
18:59:51,152; 1593
18:59:51,156; 1607
18:59:51,160; 1607
18:59:51,164; 1582
18:59:51,168; 1574
18:59:51,172; 1499
18:59:51,176; 1465
18:59:51,180; 1418
18:59:51,184; 1371
18:59:51,188; 1373
18:59:51,191; 1294
18:59:51,195; 1288
18:59:51,199; 1247
18:59:51,203; 1185
18:59:51,207; 1176
18:59:51,211; 1100
18:59:51,215; 1102
18:59:51,219; 1065
18:59:51,223; 1070
18:59:51,227; 1015
18:59:51,230; 1022
18:59:51,234; 1036
18:59:51,238; 1007
18:59:51,242; 1004
18:59:51,246; 1000
18:59:51,250; 979
18:59:51,254; 1003
18:59:51,258; 996
18:59:51,262; 1005
18:59:51,266; 988
18:59:51,270; 992
18:59:51,273; 995
18:59:51,277; 935
18:59:51,281; 994
18:59:51,285; 962
18:59:51,289; 1009
18:59:51,293; 992
18:59:51,297; 938
18:59:51,301; 996
18:59:51,305; 929
18:59:51,309; 962
18:59:51,313; 959
18:59:51,316; 952
18:59:51,320; 980
18:59:51,324; 949
18:59:51,328; 950
18:59:51,332; 943
18:59:51,336; 964
18:59:51,340; 918
18:59:51,344; 908
18:59:51,348; 921
18:59:51,352; 872
18:59:51,355; 892
18:59:51,359; 879
18:59:51,363; 926
18:59:51,367; 904
18:59:51,371; 925
18:59:51,375; 974
18:59:51,379; 931
18:59:51,383; 956
18:59:51,387; 960
18:59:51,391; 940
18:59:51,395; 953
18:59:51,398; 912
18:59:51,402; 925
18:59:51,406; 908
18:59:51,410; 887
18:59:51,414; 913
18:59:51,418; 854
18:59:51,422; 890
18:59:51,426; 844
18:59:51,430; 814
18:59:51,434; 816
18:59:51,438; 734
18:59:51,441; 742
18:59:51,445; 710
18:59:51,449; 690
18:59:51,453; 687
18:59:51,457; 657
18:59:51,461; 666
18:59:51,465; 649
18:59:51,469; 639
18:59:51,473; 638
18:59:51,477; 641
18:59:51,480; 664
18:59:51,484; 610
18:59:51,488; 650
18:59:51,492; 627
18:59:51,496; 620
18:59:51,500; 628
18:59:51,504; 623
18:59:51,508; 578
18:59:51,512; 596
18:59:51,516; 616
18:59:51,520; 696
18:59:51,523; 931
18:59:51,527; 1265
18:59:51,531; 1853
18:59:51,535; 2356
18:59:51,539; 2804
18:59:51,543; 3046
18:59:51,547; 3039
18:59:51,551; 2831
18:59:51,555; 2209
18:59:51,559; 1357
18:59:51,563; 914
18:59:51,566; 417
18:59:51,570; 232
18:59:51,574; 310
18:59:51,578; 545
18:59:51,582; 623
18:59:51,586; 620
18:59:51,590; 616
18:59:51,594; 548
18:59:51,598; 451
18:59:51,602; 538
18:59:51,605; 564
18:59:51,609; 519
18:59:51,613; 490
18:59:51,617; 492
18:59:51,621; 574
18:59:51,625; 512
18:59:51,629; 545
18:59:51,633; 533
18:59:51,637; 522
18:59:51,641; 527
18:59:51,645; 497
18:59:51,648; 510
18:59:51,652; 514
18:59:51,656; 529
18:59:51,660; 538
18:59:51,664; 509
18:59:51,668; 542
18:59:51,672; 496
18:59:51,676; 510
18:59:51,680; 519
18:59:51,684; 528
18:59:51,688; 524
18:59:51,691; 503
18:59:51,695; 563
18:59:51,699; 559
18:59:51,703; 537
18:59:51,707; 567
18:59:51,711; 563
18:59:51,715; 585
18:59:51,719; 552
18:59:51,723; 613
18:59:51,727; 599
18:59:51,730; 603
18:59:51,734; 648
18:59:51,738; 620
18:59:51,742; 690
18:59:51,746; 693
18:59:51,750; 680
18:59:51,754; 752
18:59:51,758; 739
18:59:51,762; 771
18:59:51,766; 774
18:59:51,770; 813
18:59:51,773; 825
18:59:51,777; 821
18:59:51,781; 852
18:59:51,785; 866
18:59:51,789; 891
18:59:51,793; 921
18:59:51,797; 863
18:59:51,801; 857
18:59:51,805; 817
18:59:51,809; 801
18:59:51,812; 764
18:59:51,816; 752
18:59:51,820; 697
18:59:51,824; 675
18:59:51,828; 616
18:59:51,832; 551
18:59:51,836; 550
18:59:51,840; 528
18:59:51,844; 494
18:59:51,848; 468
18:59:51,852; 419
18:59:51,855; 423
18:59:51,859; 360
18:59:51,863; 381
18:59:51,867; 366
18:59:51,871; 328
18:59:51,875; 359
18:59:51,879; 303
18:59:51,883; 340
18:59:51,887; 362
18:59:51,891; 281
18:59:51,895; 356
18:59:51,898; 322
18:59:51,902; 340
18:59:51,906; 312
18:59:51,910; 308
18:59:51,914; 364
18:59:51,918; 279
18:59:51,922; 320
18:59:51,926; 317
18:59:51,930; 287
18:59:51,934; 327
18:59:51,938; 298
18:59:51,941; 337
18:59:51,945; 319
18:59:51,949; 348
18:59:51,953; 338
18:59:51,957; 296
18:59:51,961; 355
18:59:51,965; 300
18:59:51,969; 345
18:59:51,973; 335
18:59:51,977; 318
18:59:51,980; 318
18:59:51,984; 289
18:59:51,988; 306
18:59:51,992; 289
18:59:51,996; 288
18:59:52,000; 275
18:59:52,004; 280
18:59:52,008; 329
18:59:52,012; 314
18:59:52,016; 346
18:59:52,020; 348
18:59:52,023; 318
18:59:52,027; 373
18:59:52,031; 312
18:59:52,035; 364
18:59:52,039; 372
18:59:52,043; 350
18:59:52,047; 346
18:59:52,051; 288
18:59:52,055; 295
18:59:52,059; 291
18:59:52,062; 253
18:59:52,066; 247
18:59:52,070; 226
18:59:52,074; 239
18:59:52,078; 136
18:59:52,082; 158
18:59:52,086; 123
18:59:52,090; 108
18:59:52,094; 113
18:59:52,098; 66
18:59:52,102; 109
18:59:52,105; 46
18:59:52,109; 34
18:59:52,113; 49
18:59:52,117; 74
18:59:52,121; 102
18:59:52,125; 56
18:59:52,129; 64
18:59:52,133; 78
18:59:52,137; 42
18:59:52,141; 91
18:59:52,145; 24
18:59:52,148; 48
18:59:52,152; 26
18:59:52,156; 37
18:59:52,160; 127
18:59:52,164; 423
18:59:52,168; 809
18:59:52,172; 1292
18:59:52,176; 1786
18:59:52,180; 2200
18:59:52,184; 2414
18:59:52,188; 2506
18:59:52,191; 2309
18:59:52,195; 1721
18:59:52,199; 1043
18:59:52,203; 195
18:59:52,207; -48
18:59:52,211; -322
18:59:52,215; -130
18:59:52,219; -9
18:59:52,223; 171
18:59:52,227; 163
18:59:52,230; -10
18:59:52,234; -9
18:59:52,238; -121
18:59:52,242; 4
18:59:52,246; -7
18:59:52,250; -51
18:59:52,254; -11
18:59:52,258; -47
18:59:52,262; 35
18:59:52,266; -13
18:59:52,270; -29
18:59:52,273; 12
18:59:52,277; -80
18:59:52,281; -27
18:59:52,285; -10
18:59:52,289; -50
18:59:52,293; -11
18:59:52,297; -50
18:59:52,301; 14
18:59:52,305; 15
18:59:52,309; 15
18:59:52,312; -16
18:59:52,316; -32
18:59:52,320; -23
18:59:52,324; -24
18:59:52,328; -17
18:59:52,332; -9
18:59:52,336; 37
18:59:52,340; 46
18:59:52,344; 16
18:59:52,348; 81
18:59:52,352; 2
18:59:52,355; 73
18:59:52,359; 61
18:59:52,363; 59
18:59:52,367; 112
18:59:52,371; 75
18:59:52,375; 145
18:59:52,379; 122
18:59:52,383; 194
18:59:52,387; 187
18:59:52,391; 224
18:59:52,395; 294
18:59:52,398; 265
18:59:52,402; 312
18:59:52,406; 335
18:59:52,410; 344
18:59:52,414; 393
18:59:52,418; 369
18:59:52,422; 429
18:59:52,426; 392
18:59:52,430; 418
18:59:52,434; 414
18:59:52,438; 357
18:59:52,441; 384
18:59:52,445; 390
18:59:52,449; 356
18:59:52,453; 315
18:59:52,457; 256
18:59:52,461; 240
18:59:52,465; 132
18:59:52,469; 117
18:59:52,473; 91
18:59:52,477; 63
18:59:52,480; 39
18:59:52,484; -25
18:59:52,488; -12
18:59:52,492; -58
18:59:52,496; -68
18:59:52,500; -68
18:59:52,504; -98
18:59:52,508; -106
18:59:52,512; -117
18:59:52,516; -123
18:59:52,520; -140
18:59:52,523; -135
18:59:52,527; -124
18:59:52,531; -147
18:59:52,535; -126
18:59:52,539; -150
18:59:52,543; -146
18:59:52,547; -136
18:59:52,551; -160
18:59:52,555; -124
18:59:52,559; -169
18:59:52,563; -144
18:59:52,566; -152
18:59:52,570; -155
18:59:52,574; -112
18:59:52,578; -130
18:59:52,582; -102
18:59:52,586; -117
18:59:52,590; -128
18:59:52,594; -107
18:59:52,598; -142
18:59:52,602; -92
18:59:52,605; -103
18:59:52,609; -141
18:59:52,613; -101
18:59:52,617; -125
18:59:52,621; -83
18:59:52,625; -137
18:59:52,629; -108
18:59:52,633; -128
18:59:52,637; -177
18:59:52,641; -163
18:59:52,645; -141
18:59:52,648; -204
18:59:52,652; -170
18:59:52,656; -128
18:59:52,660; -165
18:59:52,664; -164
18:59:52,668; -162
18:59:52,672; -169
18:59:52,676; -177
18:59:52,680; -174
18:59:52,684; -135
18:59:52,688; -94
18:59:52,691; -130
18:59:52,695; -109
18:59:52,699; -106
18:59:52,703; -133
18:59:52,707; -79
18:59:52,711; -137
18:59:52,715; -90
18:59:52,719; -100
18:59:52,723; -93
18:59:52,727; -92
18:59:52,730; -107
18:59:52,734; -93
18:59:52,738; -179
18:59:52,742; -162
18:59:52,746; -163
18:59:52,750; -197
18:59:52,754; -191
18:59:52,758; -216
18:59:52,762; -245
18:59:52,766; -287
18:59:52,770; -275
18:59:52,773; -280
18:59:52,777; -307
18:59:52,781; -259
18:59:52,785; -295
18:59:52,789; -286
18:59:52,793; -297
18:59:52,797; -330
18:59:52,801; -310
18:59:52,805; -329
18:59:52,809; -287
18:59:52,813; -325
18:59:52,816; -289
18:59:52,820; -264
18:59:52,824; -333
18:59:52,828; -323
18:59:52,832; -281
18:59:52,836; -168
18:59:52,840; 17
18:59:52,844; 373
18:59:52,848; 843
18:59:52,852; 1334
18:59:52,855; 1899
18:59:52,859; 2213
18:59:52,863; 2220
18:59:52,867; 2111
18:59:52,871; 1655
18:59:52,875; 954
18:59:52,879; 30
18:59:52,883; -241
18:59:52,887; -370
18:59:52,891; -507
18:59:52,895; -281
18:59:52,898; -131
18:59:52,902; -104
18:59:52,906; -216
18:59:52,910; -348
18:59:52,914; -349
18:59:52,918; -343
18:59:52,922; -299
18:59:52,926; -279
18:59:52,930; -363
18:59:52,934; -310
18:59:52,938; -339
18:59:52,941; -270
18:59:52,945; -319
18:59:52,949; -349
18:59:52,953; -315
18:59:52,957; -330
18:59:52,961; -285
18:59:52,965; -331
18:59:52,969; -270
18:59:52,973; -276
18:59:52,977; -269
18:59:52,980; -281
18:59:52,984; -298
18:59:52,988; -268
18:59:52,992; -284
18:59:52,996; -267
18:59:53,000; -264
18:59:53,004; -263
18:59:53,008; -252
18:59:53,012; -266
18:59:53,016; -231
18:59:53,020; -221
18:59:53,023; -226
18:59:53,027; -222
18:59:53,031; -211
18:59:53,035; -183
18:59:53,039; -214
18:59:53,043; -156
18:59:53,047; -115
18:59:53,051; -130
18:59:53,055; -50
18:59:53,059; -75
18:59:53,063; -22
18:59:53,066; 0
18:59:53,070; 6
18:59:53,074; 88
18:59:53,078; 61
18:59:53,082; 113
18:59:53,086; 122
18:59:53,090; 123
18:59:53,094; 184
18:59:53,098; 166
18:59:53,102; 210
18:59:53,105; 209
18:59:53,109; 180
18:59:53,113; 255
18:59:53,117; 188
18:59:53,121; 211
18:59:53,125; 175
18:59:53,129; 160
18:59:53,133; 106
18:59:53,137; 33
18:59:53,141; 42
18:59:53,145; -35
18:59:53,148; -40
18:59:53,152; -82
18:59:53,156; -137
18:59:53,160; -119
18:59:53,164; -185
18:59:53,168; -176
18:59:53,172; -241
18:59:53,176; -238
18:59:53,180; -266
18:59:53,184; -275
18:59:53,188; -250
18:59:53,191; -299
18:59:53,195; -268
18:59:53,199; -290
18:59:53,203; -314
18:59:53,207; -301
18:59:53,211; -320
18:59:53,215; -286
18:59:53,219; -284
18:59:53,223; -290
18:59:53,227; -275
18:59:53,230; -291
18:59:53,234; -250
18:59:53,238; -274
18:59:53,242; -255
18:59:53,246; -254
18:59:53,250; -269
18:59:53,254; -249
18:59:53,258; -265
18:59:53,262; -232
18:59:53,266; -260
18:59:53,270; -217
18:59:53,273; -214
18:59:53,277; -251
18:59:53,281; -216
18:59:53,285; -235
18:59:53,289; -238
18:59:53,293; -215
18:59:53,297; -263
18:59:53,301; -210
18:59:53,305; -253
18:59:53,309; -244
18:59:53,312; -251
18:59:53,316; -252
18:59:53,320; -237
18:59:53,324; -250
18:59:53,328; -260
18:59:53,332; -265
18:59:53,336; -265
18:59:53,340; -303
18:59:53,344; -289
18:59:53,348; -277
18:59:53,352; -294
18:59:53,355; -258
18:59:53,359; -324
18:59:53,363; -307
18:59:53,367; -310
18:59:53,371; -336
18:59:53,375; -314
18:59:53,379; -339
18:59:53,383; -312
18:59:53,387; -305
18:59:53,391; -341
18:59:53,395; -329
18:59:53,398; -336
18:59:53,402; -318
18:59:53,406; -331
18:59:53,410; -354
18:59:53,414; -291
18:59:53,418; -338
18:59:53,422; -317
18:59:53,426; -336
18:59:53,430; -363
18:59:53,434; -335
18:59:53,438; -374
18:59:53,441; -332
18:59:53,445; -342
18:59:53,449; -344
18:59:53,453; -323
18:59:53,457; -355
18:59:53,461; -347
18:59:53,465; -371
18:59:53,469; -363
18:59:53,473; -332
18:59:53,477; -355
18:59:53,480; -336
18:59:53,484; -338
18:59:53,488; -344
18:59:53,492; -353
18:59:53,496; -358
18:59:53,500; -351
18:59:53,504; -371
18:59:53,508; -353
18:59:53,512; -355
18:59:53,516; -367
18:59:53,520; -354
18:59:53,523; -358
18:59:53,527; -329
18:59:53,531; -372
18:59:53,535; -347
18:59:53,539; -338
18:59:53,543; -363
18:59:53,547; -340
18:59:53,551; -349
18:59:53,555; -321
18:59:53,559; -352
18:59:53,562; -357
18:59:53,566; -346
18:59:53,570; -365
18:59:53,574; -326
18:59:53,578; -372
18:59:53,582; -327
18:59:53,586; -349
18:59:53,590; -345
18:59:53,594; -346
18:59:53,598; -363
18:59:53,602; -335
18:59:53,605; -342
18:59:53,609; -364
18:59:53,613; -354
18:59:53,617; -348
18:59:53,621; -356
18:59:53,625; -341
18:59:53,629; -342
18:59:53,633; -340
18:59:53,637; -356
18:59:53,641; -336
18:59:53,645; -345
18:59:53,648; -354
18:59:53,652; -335
18:59:53,656; -340
18:59:53,660; -325
18:59:53,664; -375
18:59:53,668; -324
18:59:53,672; -344
18:59:53,676; -357
18:59:53,680; -331
18:59:53,684; -363
18:59:53,688; -330
18:59:53,691; -366
18:59:53,695; -354
18:59:53,699; -323
18:59:53,703; -368
18:59:53,707; -342
18:59:53,711; -351
18:59:53,715; -338
18:59:53,719; -353
18:59:53,723; -358
18:59:53,727; -333
18:59:53,730; -360
18:59:53,734; -324
18:59:53,738; -373
18:59:53,742; -343
18:59:53,746; -350
18:59:53,750; -355
18:59:53,754; -335
18:59:53,758; -375
18:59:53,762; -327
18:59:53,766; -368
18:59:53,770; -341
18:59:53,773; -313
18:59:53,777; -366
18:59:53,781; -315
18:59:53,785; -337
18:59:53,789; -324
18:59:53,793; -282
18:59:53,797; -320
18:59:53,801; -246
18:59:53,805; -246
18:59:53,809; -252
18:59:53,812; -225
18:59:53,816; -218
18:59:53,820; -189
18:59:53,824; -199
18:59:53,828; -245
18:59:53,832; -213
18:59:53,836; -245
18:59:53,840; -245
18:59:53,844; -264
18:59:53,848; -266
18:59:53,852; -261
18:59:53,855; -260
18:59:53,859; -296
18:59:53,863; -289
18:59:53,867; -323
18:59:53,871; -333
18:59:53,875; -339
18:59:53,879; -361
18:59:53,883; -338
18:59:53,887; -309
18:59:53,891; -343
18:59:53,895; -307
18:59:53,898; -352
18:59:53,902; -342
18:59:53,906; -322
18:59:53,910; -368
18:59:53,914; -313
18:59:53,918; -349
18:59:53,922; -317
18:59:53,926; -364
18:59:53,930; -371
18:59:53,934; -265
18:59:53,938; -214
18:59:53,941; -25
18:59:53,945; 263
18:59:53,949; 737
18:59:53,953; 1329
18:59:53,957; 1692
18:59:53,961; 2095
18:59:53,965; 2048
18:59:53,969; 2028
18:59:53,973; 1384
18:59:53,977; 721
18:59:53,980; 37
18:59:53,984; -336
18:59:53,988; -545
18:59:53,992; -524
18:59:53,996; -426
18:59:54,000; -225
18:59:54,004; -178
18:59:54,008; -286
18:59:54,012; -361
18:59:54,016; -346
18:59:54,020; -328
18:59:54,023; -328
18:59:54,027; -295
18:59:54,031; -342
18:59:54,035; -360
18:59:54,039; -310
18:59:54,043; -325
18:59:54,047; -319
18:59:54,051; -347
18:59:54,055; -314
18:59:54,059; -335
18:59:54,062; -335
18:59:54,066; -305
18:59:54,070; -335
18:59:54,074; -285
18:59:54,078; -297
18:59:54,082; -302
18:59:54,086; -281
18:59:54,090; -312
18:59:54,094; -290
18:59:54,098; -323
18:59:54,102; -282
18:59:54,105; -291
18:59:54,109; -294
18:59:54,113; -250
18:59:54,117; -282
18:59:54,121; -222
18:59:54,125; -248
18:59:54,129; -233
18:59:54,133; -217
18:59:54,137; -229
18:59:54,141; -178
18:59:54,145; -177
18:59:54,148; -165
18:59:54,152; -127
18:59:54,156; -127
18:59:54,160; -135
18:59:54,164; -99
18:59:54,168; -75
18:59:54,172; -59
18:59:54,176; -27
18:59:54,180; -13
18:59:54,184; 20
18:59:54,188; 47
18:59:54,191; 57
18:59:54,195; 94
18:59:54,199; 112
18:59:54,203; 130
18:59:54,207; 149
18:59:54,211; 139
18:59:54,215; 199
18:59:54,219; 166
18:59:54,223; 193
18:59:54,227; 206
18:59:54,230; 192
18:59:54,234; 203
18:59:54,238; 158
18:59:54,242; 169
18:59:54,246; 154
18:59:54,250; 96
18:59:54,254; 119
18:59:54,258; 54
18:59:54,262; 21
18:59:54,266; -19
18:59:54,270; -67
18:59:54,273; -44
18:59:54,277; -137
18:59:54,281; -107
18:59:54,285; -156
18:59:54,289; -182
18:59:54,293; -175
18:59:54,297; -221
18:59:54,301; -194
18:59:54,305; -225
18:59:54,309; -206
18:59:54,313; -231
18:59:54,316; -233
18:59:54,320; -215
18:59:54,324; -230
18:59:54,328; -244
18:59:54,332; -224
18:59:54,336; -224
18:59:54,340; -210
18:59:54,344; -228
18:59:54,348; -187
18:59:54,352; -220
18:59:54,355; -188
18:59:54,359; -193
18:59:54,363; -201
18:59:54,367; -187
18:59:54,371; -191
18:59:54,375; -185
18:59:54,379; -200
18:59:54,383; -202
18:59:54,387; -177
18:59:54,391; -218
18:59:54,395; -218
18:59:54,398; -223
18:59:54,402; -225
18:59:54,406; -231
18:59:54,410; -242
18:59:54,414; -225
18:59:54,418; -241
18:59:54,422; -236
18:59:54,426; -246
18:59:54,430; -258
18:59:54,434; -232
18:59:54,438; -270
18:59:54,441; -264
18:59:54,445; -265
18:59:54,449; -287
18:59:54,453; -279
18:59:54,457; -301
18:59:54,461; -281
18:59:54,465; -303
18:59:54,469; -303
18:59:54,473; -301
18:59:54,477; -319
18:59:54,480; -283
18:59:54,484; -324
18:59:54,488; -308
18:59:54,492; -310
18:59:54,496; -339
18:59:54,500; -303
18:59:54,504; -358
18:59:54,508; -316
18:59:54,512; -314
18:59:54,516; -354
18:59:54,520; -331
18:59:54,523; -337
18:59:54,527; -341
18:59:54,531; -360
18:59:54,535; -318
18:59:54,539; -327
18:59:54,543; -342
18:59:54,547; -331
18:59:54,551; -352
18:59:54,555; -336
18:59:54,559; -368
18:59:54,563; -365
18:59:54,566; -350
18:59:54,570; -371
18:59:54,574; -336
18:59:54,578; -384
18:59:54,582; -336
18:59:54,586; -356
18:59:54,590; -379
18:59:54,594; -327
18:59:54,598; -369
18:59:54,602; -347
18:59:54,605; -338
18:59:54,609; -367
18:59:54,613; -336
18:59:54,617; -365
18:59:54,621; -328
18:59:54,625; -341
18:59:54,629; -344
18:59:54,633; -324
18:59:54,637; -351
18:59:54,641; -344
18:59:54,645; -366
18:59:54,648; -360
18:59:54,652; -331
18:59:54,656; -372
18:59:54,660; -334
18:59:54,664; -341
18:59:54,668; -364
18:59:54,672; -354
18:59:54,676; -355
18:59:54,680; -354
18:59:54,684; -343
18:59:54,688; -351
18:59:54,691; -341
18:59:54,695; -335
18:59:54,699; -352
18:59:54,703; -358
18:59:54,707; -321
18:59:54,711; -361
18:59:54,715; -342
18:59:54,719; -332
18:59:54,723; -352
18:59:54,727; -306
18:59:54,730; -362
18:59:54,734; -320
18:59:54,738; -363
18:59:54,742; -350
18:59:54,746; -331
18:59:54,750; -358
18:59:54,754; -335
18:59:54,758; -341
18:59:54,762; -331
18:59:54,766; -323
18:59:54,770; -301
18:59:54,773; -244
18:59:54,777; -283
18:59:54,781; -243
18:59:54,785; -255
18:59:54,789; -237
18:59:54,793; -225
18:59:54,797; -218
18:59:54,801; -184
18:59:54,805; -204
18:59:54,809; -210
18:59:54,813; -213
18:59:54,816; -252
18:59:54,820; -230
18:59:54,824; -241
18:59:54,828; -254
18:59:54,832; -262
18:59:54,836; -261
18:59:54,840; -272
18:59:54,844; -319
18:59:54,848; -294
18:59:54,852; -355
18:59:54,855; -355
18:59:54,859; -344
18:59:54,863; -382
18:59:54,867; -347
18:59:54,871; -371
18:59:54,875; -358
18:59:54,879; -362
18:59:54,883; -360
18:59:54,887; -336
18:59:54,891; -353
18:59:54,895; -321
18:59:54,898; -346
18:59:54,902; -350
18:59:54,906; -366
18:59:54,910; -384
18:59:54,914; -321
18:59:54,918; -294
18:59:54,922; -115
18:59:54,926; 235
18:59:54,930; 638
18:59:54,934; 1092
18:59:54,938; 1558
18:59:54,941; 1977
18:59:54,945; 2008
18:59:54,949; 1857
18:59:54,953; 1543
18:59:54,957; 842
18:59:54,961; -12
18:59:54,965; -409
18:59:54,969; -480
18:59:54,973; -514
18:59:54,977; -387
18:59:54,980; -205
18:59:54,984; -216
18:59:54,988; -291
18:59:54,992; -394
18:59:54,996; -380
18:59:55,000; -341
18:59:55,004; -279
18:59:55,008; -285
18:59:55,012; -360
18:59:55,016; -396
18:59:55,020; -319
18:59:55,023; -336
18:59:55,027; -351
18:59:55,031; -375
18:59:55,035; -330
18:59:55,039; -337
18:59:55,043; -304
18:59:55,047; -314
18:59:55,051; -332
18:59:55,055; -316
18:59:55,059; -319
18:59:55,062; -298
18:59:55,066; -282
18:59:55,070; -307
18:59:55,074; -266
18:59:55,078; -312
18:59:55,082; -284
18:59:55,086; -270
18:59:55,090; -278
18:59:55,094; -224
18:59:55,098; -260
18:59:55,102; -228
18:59:55,105; -203
18:59:55,109; -254
18:59:55,113; -177
18:59:55,117; -198
18:59:55,121; -172
18:59:55,125; -152
18:59:55,129; -124
18:59:55,133; -123
18:59:55,137; -114
18:59:55,141; -62
18:59:55,145; -61
18:59:55,148; -24
18:59:55,152; 3
18:59:55,156; 17
18:59:55,160; 76
18:59:55,164; 65
18:59:55,168; 100
18:59:55,172; 134
18:59:55,176; 124
18:59:55,180; 159
18:59:55,184; 166
18:59:55,188; 191
18:59:55,191; 185
18:59:55,195; 221
18:59:55,199; 248
18:59:55,203; 210
18:59:55,207; 239
18:59:55,211; 231
18:59:55,215; 215
18:59:55,219; 203
18:59:55,223; 153
18:59:55,227; 139
18:59:55,230; 93
18:59:55,234; 44
18:59:55,238; 6
18:59:55,242; -25
18:59:55,246; -65
18:59:55,250; -112
18:59:55,254; -107
18:59:55,258; -146
18:59:55,262; -178
18:59:55,266; -191
18:59:55,270; -216
18:59:55,273; -203
18:59:55,277; -265
18:59:55,281; -222
18:59:55,285; -234
18:59:55,289; -268
18:59:55,293; -230
18:59:55,297; -310
18:59:55,301; -239
18:59:55,305; -280
18:59:55,309; -278
18:59:55,312; -259
18:59:55,316; -261
18:59:55,320; -233
18:59:55,324; -237
18:59:55,328; -221
18:59:55,332; -211
18:59:55,336; -232
18:59:55,340; -226
18:59:55,344; -223
18:59:55,348; -215
18:59:55,352; -230
18:59:55,355; -197
18:59:55,359; -211
18:59:55,363; -224
18:59:55,367; -210
18:59:55,371; -227
18:59:55,375; -215
18:59:55,379; -221
18:59:55,383; -222
18:59:55,387; -220
18:59:55,391; -248
18:59:55,395; -220
18:59:55,398; -241
18:59:55,402; -238
18:59:55,406; -231
18:59:55,410; -258
18:59:55,414; -217
18:59:55,418; -264
18:59:55,422; -264
18:59:55,426; -246
18:59:55,430; -283
18:59:55,434; -261
18:59:55,438; -292
18:59:55,441; -275
18:59:55,445; -277
18:59:55,449; -309
18:59:55,453; -271
18:59:55,457; -297
18:59:55,461; -260
18:59:55,465; -277
18:59:55,469; -311
18:59:55,473; -264
18:59:55,477; -319
18:59:55,480; -278
18:59:55,484; -309
18:59:55,488; -322
18:59:55,492; -266
18:59:55,496; -316
18:59:55,500; -294
18:59:55,504; -296
18:59:55,508; -304
18:59:55,512; -291
18:59:55,516; -320
18:59:55,520; -322
18:59:55,523; -318
18:59:55,527; -282
18:59:55,531; -316
18:59:55,535; -303
18:59:55,539; -300
18:59:55,543; -319
18:59:55,547; -296
18:59:55,551; -322
18:59:55,555; -296
18:59:55,559; -291
18:59:55,562; -317
18:59:55,566; -277
18:59:55,570; -324
18:59:55,574; -282
18:59:55,578; -322
18:59:55,582; -313
18:59:55,586; -296
18:59:55,590; -320
18:59:55,594; -269
18:59:55,598; -304
18:59:55,602; -284
18:59:55,605; -279
18:59:55,609; -306
18:59:55,613; -277
18:59:55,617; -303
18:59:55,621; -269
18:59:55,625; -281
18:59:55,629; -285
18:59:55,633; -266
18:59:55,637; -290
18:59:55,641; -263
18:59:55,645; -289
18:59:55,648; -294
18:59:55,652; -292
18:59:55,656; -286
18:59:55,660; -270
18:59:55,664; -300
18:59:55,668; -273
18:59:55,672; -269
18:59:55,676; -299
18:59:55,680; -276
18:59:55,684; -293
18:59:55,688; -256
18:59:55,691; -293
18:59:55,695; -289
18:59:55,699; -262
18:59:55,703; -299
18:59:55,707; -273
18:59:55,711; -281
18:59:55,715; -272
18:59:55,719; -264
18:59:55,723; -280
18:59:55,727; -258
18:59:55,730; -270
18:59:55,734; -221
18:59:55,738; -251
18:59:55,742; -202
18:59:55,746; -174
18:59:55,750; -192
18:59:55,754; -145
18:59:55,758; -159
18:59:55,762; -119
18:59:55,766; -138
18:59:55,770; -130
18:59:55,773; -106
18:59:55,777; -172
18:59:55,781; -154
18:59:55,785; -187
18:59:55,789; -201
18:59:55,793; -171
18:59:55,797; -222
18:59:55,801; -171
18:59:55,805; -195
18:59:55,809; -241
18:59:55,813; -232
18:59:55,816; -277
18:59:55,820; -269
18:59:55,824; -302
18:59:55,828; -298
18:59:55,832; -264
18:59:55,836; -300
18:59:55,840; -282
18:59:55,844; -292
18:59:55,848; -280
18:59:55,852; -289
18:59:55,855; -281
18:59:55,859; -286
18:59:55,863; -286
18:59:55,867; -293
18:59:55,871; -317
18:59:55,875; -315
18:59:55,879; -274
18:59:55,883; -206
18:59:55,887; -31
18:59:55,891; 259
18:59:55,895; 681
18:59:55,898; 1157
18:59:55,902; 1671
18:59:55,906; 2015
18:59:55,910; 2055
18:59:55,914; 1998
18:59:55,918; 1463
18:59:55,922; 828
18:59:55,926; 140
18:59:55,930; -331
18:59:55,934; -405
18:59:55,938; -397
18:59:55,941; -345
18:59:55,945; -105
18:59:55,949; -134
18:59:55,953; -193
18:59:55,957; -286
18:59:55,961; -260
18:59:55,965; -254
18:59:55,969; -225
18:59:55,973; -212
18:59:55,977; -273
18:59:55,980; -243
18:59:55,984; -262
18:59:55,988; -218
18:59:55,992; -216
18:59:55,996; -250
18:59:56,000; -232
18:59:56,004; -239
18:59:56,008; -222
18:59:56,012; -231
18:59:56,016; -225
18:59:56,020; -214
18:59:56,023; -235
18:59:56,027; -200
18:59:56,031; -206
18:59:56,035; -206
18:59:56,039; -186
18:59:56,043; -193
18:59:56,047; -172
18:59:56,051; -191
18:59:56,055; -172
18:59:56,059; -147
18:59:56,063; -162
18:59:56,066; -121
18:59:56,070; -144
18:59:56,074; -109
18:59:56,078; -100
18:59:56,082; -81
18:59:56,086; -73
18:59:56,090; -64
18:59:56,094; -25
18:59:56,098; -74
18:59:56,102; -7
18:59:56,105; 25
18:59:56,109; 5
18:59:56,113; 81
18:59:56,117; 54
18:59:56,121; 135
18:59:56,125; 152
18:59:56,129; 155
18:59:56,133; 251
18:59:56,137; 208
18:59:56,141; 291
18:59:56,145; 250
18:59:56,148; 292
18:59:56,152; 341
18:59:56,156; 343
18:59:56,160; 365
18:59:56,164; 368
18:59:56,168; 389
18:59:56,172; 375
18:59:56,176; 376
18:59:56,180; 369
18:59:56,184; 330
18:59:56,188; 311
18:59:56,191; 267
18:59:56,195; 223
18:59:56,199; 195
18:59:56,203; 136
18:59:56,207; 119
18:59:56,211; 58
18:59:56,215; 28
18:59:56,219; 13
18:59:56,223; -4
18:59:56,227; -46
18:59:56,230; -85
18:59:56,234; -65
18:59:56,238; -126
18:59:56,242; -114
18:59:56,246; -135
18:59:56,250; -146
18:59:56,254; -117
18:59:56,258; -172
18:59:56,262; -150
18:59:56,266; -151
18:59:56,270; -170
18:59:56,273; -123
18:59:56,277; -166
18:59:56,281; -122
18:59:56,285; -119
18:59:56,289; -120
18:59:56,293; -86
18:59:56,297; -141
18:59:56,301; -83
18:59:56,305; -109
18:59:56,309; -100
18:59:56,313; -85
18:59:56,316; -94
18:59:56,320; -70
18:59:56,324; -100
18:59:56,328; -79
18:59:56,332; -79
18:59:56,336; -85
18:59:56,340; -61
18:59:56,344; -100
18:59:56,348; -83
18:59:56,352; -103
18:59:56,355; -102
18:59:56,359; -105
18:59:56,363; -99
18:59:56,367; -83
18:59:56,371; -115
18:59:56,375; -109
18:59:56,379; -112
18:59:56,383; -129
18:59:56,387; -101
18:59:56,391; -146
18:59:56,395; -117
18:59:56,398; -133
18:59:56,402; -154
18:59:56,406; -144
18:59:56,410; -163
18:59:56,414; -132
18:59:56,418; -155
18:59:56,422; -157
18:59:56,426; -129
18:59:56,430; -154
18:59:56,434; -137
18:59:56,438; -172
18:59:56,441; -159
18:59:56,445; -157
18:59:56,449; -183
18:59:56,453; -149
18:59:56,457; -175
18:59:56,461; -143
18:59:56,465; -186
18:59:56,469; -186
18:59:56,473; -150
18:59:56,477; -183
18:59:56,480; -149
18:59:56,484; -164
18:59:56,488; -168
18:59:56,492; -149
18:59:56,496; -193
18:59:56,500; -144
18:59:56,504; -182
18:59:56,508; -174
18:59:56,512; -181
18:59:56,516; -181
18:59:56,520; -168
18:59:56,523; -121
18:59:56,527; -110
18:59:56,531; -101
18:59:56,535; -80
18:59:56,539; -51
18:59:56,543; -50
18:59:56,547; -22
18:59:56,551; -25
18:59:56,555; 17
18:59:56,559; -27
18:59:56,562; -47
18:59:56,566; -41
18:59:56,570; -76
18:59:56,574; -54
18:59:56,578; -75
18:59:56,582; -41
18:59:56,586; -58
18:59:56,590; -99
18:59:56,594; -94
18:59:56,598; -177
18:59:56,602; -177
18:59:56,605; -204
18:59:56,609; -229
18:59:56,613; -172
18:59:56,617; -211
18:59:56,621; -190
18:59:56,625; -184
18:59:56,629; -192
18:59:56,633; -159
18:59:56,637; -214
18:59:56,641; -188
18:59:56,645; -206
18:59:56,648; -233
18:59:56,652; -162
18:59:56,656; -211
18:59:56,660; -169
18:59:56,664; -189
18:59:56,668; -175
18:59:56,672; -112
18:59:56,676; 4
18:59:56,680; 236
18:59:56,684; 623
18:59:56,688; 1197
18:59:56,691; 1640
18:59:56,695; 2043
18:59:56,699; 2148
18:59:56,703; 2145
18:59:56,707; 1947
18:59:56,711; 1364
18:59:56,715; 447
18:59:56,719; -8
18:59:56,723; -215
18:59:56,727; -565
18:59:56,730; -361
18:59:56,734; -99
18:59:56,738; 23
18:59:56,742; -114
18:59:56,746; -89
18:59:56,750; -261
18:59:56,754; -149
18:59:56,758; -131
18:59:56,762; -131
18:59:56,766; -88
18:59:56,770; -220
18:59:56,773; -198
18:59:56,777; -167
18:59:56,781; -123
18:59:56,785; -144
18:59:56,789; -146
18:59:56,793; -104
18:59:56,797; -156
18:59:56,801; -130
18:59:56,805; -126
18:59:56,809; -131
18:59:56,812; -119
18:59:56,816; -107
18:59:56,820; -96
18:59:56,824; -101
18:59:56,828; -105
18:59:56,832; -87
18:59:56,836; -93
18:59:56,840; -82
18:59:56,844; -98
18:59:56,848; -80
18:59:56,852; -86
18:59:56,855; -76
18:59:56,859; -45
18:59:56,863; -35
18:59:56,867; -3
18:59:56,871; -10
18:59:56,875; 27
18:59:56,879; 56
18:59:56,883; 15
18:59:56,887; 80
18:59:56,891; 68
18:59:56,895; 85
18:59:56,898; 101
18:59:56,902; 111
18:59:56,906; 153
18:59:56,910; 167
18:59:56,914; 247
18:59:56,918; 230
18:59:56,922; 259
18:59:56,926; 289
18:59:56,930; 287
18:59:56,934; 352
18:59:56,938; 330
18:59:56,941; 405
18:59:56,945; 411
18:59:56,949; 394
18:59:56,953; 425
18:59:56,957; 390
18:59:56,961; 442
18:59:56,965; 391
18:59:56,969; 353
18:59:56,973; 351
18:59:56,977; 251
18:59:56,980; 263
18:59:56,984; 167
18:59:56,988; 149
18:59:56,992; 160
18:59:56,996; 46
18:59:57,000; 78
18:59:57,004; 28
18:59:57,008; 8
18:59:57,012; -11
18:59:57,016; -60
18:59:57,020; -62
18:59:57,023; -122
18:59:57,027; -132
18:59:57,031; -153
18:59:57,035; -137
18:59:57,039; -155
18:59:57,043; -116
18:59:57,047; -140
18:59:57,051; -150
18:59:57,055; -142
18:59:57,059; -157
18:59:57,062; -158
18:59:57,066; -86
18:59:57,070; -142
18:59:57,074; -129
18:59:57,078; -163
18:59:57,082; -127
18:59:57,086; -126
18:59:57,090; -146
18:59:57,094; -103
18:59:57,098; -105
18:59:57,102; -133
18:59:57,105; -103
18:59:57,109; -161
18:59:57,113; -72
18:59:57,117; -137
18:59:57,121; -99
18:59:57,125; -116
18:59:57,129; -117
18:59:57,133; -68
18:59:57,137; -97
18:59:57,141; -105
18:59:57,145; -117
18:59:57,148; -116
18:59:57,152; -118
18:59:57,156; -134
18:59:57,160; -135
18:59:57,164; -140
18:59:57,168; -97
18:59:57,172; -85
18:59:57,176; -80
18:59:57,180; -35
18:59:57,184; -48
18:59:57,188; -56
18:59:57,191; -53
18:59:57,195; -39
18:59:57,199; -24
18:59:57,203; -43
18:59:57,207; -33
18:59:57,211; -60
18:59:57,215; -63
18:59:57,219; -69
18:59:57,223; -83
18:59:57,227; -53
18:59:57,230; -111
18:59:57,234; -120
18:59:57,238; -122
18:59:57,242; -181
18:59:57,246; -207
18:59:57,250; -239
18:59:57,254; -215
18:59:57,258; -240
18:59:57,262; -208
18:59:57,266; -225
18:59:57,270; -242
18:59:57,273; -203
18:59:57,277; -288
18:59:57,281; -207
18:59:57,285; -250
18:59:57,289; -264
18:59:57,293; -235
18:59:57,297; -309
18:59:57,301; -221
18:59:57,305; -250
18:59:57,309; -284
18:59:57,313; -226
18:59:57,316; -256
18:59:57,320; -123
18:59:57,324; -37
18:59:57,328; 254
18:59:57,332; 729
18:59:57,336; 1166
18:59:57,340; 1717
18:59:57,344; 2047
18:59:57,348; 2207
18:59:57,352; 2167
18:59:57,355; 1819
18:59:57,359; 1201
18:59:57,363; 315
18:59:57,367; -238
18:59:57,371; -304
18:59:57,375; -681
18:59:57,379; -444
18:59:57,383; -249
18:59:57,387; -32
18:59:57,391; -193
18:59:57,395; -176
18:59:57,398; -233
18:59:57,402; -208
18:59:57,406; -179
18:59:57,410; -296
18:59:57,414; -258
18:59:57,418; -281
18:59:57,422; -261
18:59:57,426; -225
18:59:57,430; -232
18:59:57,434; -228
18:59:57,438; -265
18:59:57,441; -226
18:59:57,445; -221
18:59:57,449; -241
18:59:57,453; -200
18:59:57,457; -236
18:59:57,461; -201
18:59:57,465; -216
18:59:57,469; -217
18:59:57,473; -163
18:59:57,477; -196
18:59:57,480; -182
18:59:57,484; -171
18:59:57,488; -222
18:59:57,492; -163
18:59:57,496; -178
18:59:57,500; -135
18:59:57,504; -165
18:59:57,508; -140
18:59:57,512; -83
18:59:57,516; -130
18:59:57,520; -73
18:59:57,523; -75
18:59:57,527; -33
18:59:57,531; -34
18:59:57,535; -16
18:59:57,539; 30
18:59:57,543; 10
18:59:57,547; 48
18:59:57,551; 57
18:59:57,555; 112
18:59:57,559; 153
18:59:57,563; 174
18:59:57,566; 212
18:59:57,570; 234
18:59:57,574; 267
18:59:57,578; 253
18:59:57,582; 315
18:59:57,586; 363
18:59:57,590; 322
18:59:57,594; 372
18:59:57,598; 355
18:59:57,602; 322
18:59:57,605; 355
18:59:57,609; 307
18:59:57,613; 284
18:59:57,617; 249
18:59:57,621; 230
18:59:57,625; 139
18:59:57,629; 104
18:59:57,633; 81
18:59:57,637; 2
18:59:57,641; -17
18:59:57,645; -57
18:59:57,648; -77
18:59:57,652; -105
18:59:57,656; -160
18:59:57,660; -142
18:59:57,664; -179
18:59:57,668; -183
18:59:57,672; -175
18:59:57,676; -237
18:59:57,680; -193
18:59:57,684; -255
18:59:57,688; -216
18:59:57,691; -218
18:59:57,695; -228
18:59:57,699; -204
18:59:57,703; -233
18:59:57,707; -230
18:59:57,711; -237
18:59:57,715; -217
18:59:57,719; -198
18:59:57,723; -230
18:59:57,727; -223
18:59:57,730; -226
18:59:57,734; -231
18:59:57,738; -234
18:59:57,742; -220
18:59:57,746; -193
18:59:57,750; -194
18:59:57,754; -196
18:59:57,758; -201
18:59:57,762; -196
18:59:57,766; -208
18:59:57,770; -206
18:59:57,773; -167
18:59:57,777; -195
18:59:57,781; -164
18:59:57,785; -175
18:59:57,789; -184
18:59:57,793; -164
18:59:57,797; -205
18:59:57,801; -150
18:59:57,805; -125
18:59:57,809; -138
18:59:57,813; -83
18:59:57,816; -133
18:59:57,820; -87
18:59:57,824; -53
18:59:57,828; -111
18:59:57,832; -34
18:59:57,836; -68
18:59:57,840; -55
18:59:57,844; -70
18:59:57,848; -130
18:59:57,852; -138
18:59:57,855; -131
18:59:57,859; -143
18:59:57,863; -162
18:59:57,867; -182
18:59:57,871; -198
18:59:57,875; -223
18:59:57,879; -283
18:59:57,883; -294
18:59:57,887; -252
18:59:57,891; -313
18:59:57,895; -285
18:59:57,898; -297
18:59:57,902; -313
18:59:57,906; -269
18:59:57,910; -331
18:59:57,914; -280
18:59:57,918; -290
18:59:57,922; -355
18:59:57,926; -283
18:59:57,930; -326
18:59:57,934; -274
18:59:57,938; -312
18:59:57,941; -309
18:59:57,945; -297
18:59:57,949; -319
18:59:57,953; -205
18:59:57,957; -87
18:59:57,961; 216
18:59:57,965; 712
18:59:57,969; 1162
18:59:57,973; 1729
18:59:57,977; 2050
18:59:57,980; 2125
18:59:57,984; 2057
18:59:57,988; 1682
18:59:57,992; 840
18:59:57,996; 162
18:59:58,000; -210
18:59:58,004; -600
18:59:58,008; -529
18:59:58,012; -477
18:59:58,016; -276
18:59:58,020; -127
18:59:58,023; -298
18:59:58,027; -301
18:59:58,031; -368
18:59:58,035; -310
18:59:58,039; -292
18:59:58,043; -320
18:59:58,047; -351
18:59:58,051; -336
18:59:58,055; -320
18:59:58,059; -304
18:59:58,062; -341
18:59:58,066; -279
18:59:58,070; -320
18:59:58,074; -294
18:59:58,078; -289
18:59:58,082; -317
18:59:58,086; -266
18:59:58,090; -276
18:59:58,094; -268
18:59:58,098; -317
18:59:58,102; -282
18:59:58,105; -279
18:59:58,109; -301
18:59:58,113; -265
18:59:58,117; -267
18:59:58,121; -263
18:59:58,125; -261
18:59:58,129; -283
18:59:58,133; -210
18:59:58,137; -273
18:59:58,141; -202
18:59:58,145; -187
18:59:58,148; -215
18:59:58,152; -153
18:59:58,156; -199
18:59:58,160; -144
18:59:58,164; -149
18:59:58,168; -141
18:59:58,172; -104
18:59:58,176; -100
18:59:58,180; -53
18:59:58,184; -65
18:59:58,188; -22
18:59:58,191; 17
18:59:58,195; 34
18:59:58,199; 87
18:59:58,203; 70
18:59:58,207; 106
18:59:58,211; 145
18:59:58,215; 166
18:59:58,219; 194
18:59:58,223; 208
18:59:58,227; 211
18:59:58,230; 209
18:59:58,234; 183
18:59:58,238; 162
18:59:58,242; 133
18:59:58,246; 106
18:59:58,250; 51
18:59:58,254; 34
18:59:58,258; -53
18:59:58,262; -73
18:59:58,266; -116
18:59:58,270; -176
18:59:58,273; -175
18:59:58,277; -252
18:59:58,281; -245
18:59:58,285; -243
18:59:58,289; -329
18:59:58,293; -300
18:59:58,297; -363
18:59:58,301; -359
18:59:58,305; -377
18:59:58,309; -425
18:59:58,312; -380
18:59:58,316; -402
18:59:58,320; -387
18:59:58,324; -401
18:59:58,328; -416
18:59:58,332; -398
18:59:58,336; -421
18:59:58,340; -404
18:59:58,344; -432
18:59:58,348; -402
18:59:58,352; -399
18:59:58,355; -434
18:59:58,359; -387
18:59:58,363; -403
18:59:58,367; -365
18:59:58,371; -392
18:59:58,375; -393
18:59:58,379; -380
18:59:58,383; -421
18:59:58,387; -388
18:59:58,391; -417
18:59:58,395; -402
18:59:58,398; -373
18:59:58,402; -387
18:59:58,406; -365
18:59:58,410; -391
18:59:58,414; -360
18:59:58,418; -391
18:59:58,422; -420
18:59:58,426; -379
18:59:58,430; -441
18:59:58,434; -389
18:59:58,438; -432
18:59:58,441; -420
18:59:58,445; -434
18:59:58,449; -461
18:59:58,453; -444
18:59:58,457; -456
18:59:58,461; -473
18:59:58,465; -483
18:59:58,469; -487
18:59:58,473; -493
18:59:58,477; -506
18:59:58,480; -490
18:59:58,484; -523
18:59:58,488; -506
18:59:58,492; -517
18:59:58,496; -576
18:59:58,500; -519
18:59:58,504; -561
18:59:58,508; -554
18:59:58,512; -532
18:59:58,516; -602
18:59:58,520; -536
18:59:58,523; -600
18:59:58,527; -561
18:59:58,531; -569
18:59:58,535; -581
18:59:58,539; -550
18:59:58,543; -580
18:59:58,547; -578
18:59:58,551; -587
18:59:58,555; -619
18:59:58,559; -615
18:59:58,562; -635
18:59:58,566; -609
18:59:58,570; -644
18:59:58,574; -613
18:59:58,578; -637
18:59:58,582; -664
18:59:58,586; -625
18:59:58,590; -667
18:59:58,594; -621
18:59:58,598; -665
18:59:58,602; -632
18:59:58,605; -645
18:59:58,609; -702
18:59:58,613; -638
18:59:58,617; -678
18:59:58,621; -672
18:59:58,625; -660
18:59:58,629; -689
18:59:58,633; -659
18:59:58,637; -694
18:59:58,641; -681
18:59:58,645; -685
18:59:58,648; -717
18:59:58,652; -674
18:59:58,656; -734
18:59:58,660; -693
18:59:58,664; -685
18:59:58,668; -734
18:59:58,672; -669
18:59:58,676; -716
18:59:58,680; -703
18:59:58,684; -708
18:59:58,688; -737
18:59:58,691; -703
18:59:58,695; -737
18:59:58,699; -717
18:59:58,703; -734
18:59:58,707; -691
18:59:58,711; -731
18:59:58,715; -760
18:59:58,719; -727
18:59:58,723; -778
18:59:58,727; -723
18:59:58,730; -763
18:59:58,734; -766
18:59:58,738; -749
18:59:58,742; -787
18:59:58,746; -749
18:59:58,750; -808
18:59:58,754; -751
18:59:58,758; -756
18:59:58,762; -786
18:59:58,766; -755
18:59:58,770; -785
18:59:58,773; -768
18:59:58,777; -777
18:59:58,781; -793
18:59:58,785; -804
18:59:58,789; -809
18:59:58,793; -786
18:59:58,797; -829
18:59:58,801; -800
18:59:58,805; -805
18:59:58,809; -827
18:59:58,812; -818
18:59:58,816; -843
18:59:58,820; -793
18:59:58,824; -824
18:59:58,828; -837
18:59:58,832; -809
18:59:58,836; -862
18:59:58,840; -820
18:59:58,844; -867
18:59:58,848; -849
18:59:58,852; -849
18:59:58,855; -851
18:59:58,859; -842
18:59:58,863; -857
18:59:58,867; -835
18:59:58,871; -867
18:59:58,875; -876
18:59:58,879; -859
18:59:58,883; -899
18:59:58,887; -860
18:59:58,891; -895
18:59:58,895; -881
18:59:58,898; -882
18:59:58,902; -906
18:59:58,906; -875
18:59:58,910; -881
18:59:58,914; -856
18:59:58,918; -890
18:59:58,922; -847
18:59:58,926; -822
18:59:58,930; -837
18:59:58,934; -780
18:59:58,938; -825
18:59:58,941; -780
18:59:58,945; -780
18:59:58,949; -809
18:59:58,953; -771
18:59:58,957; -834
18:59:58,961; -791
18:59:58,965; -852
18:59:58,969; -891
18:59:58,973; -848
18:59:58,977; -878
18:59:58,980; -864
18:59:58,984; -875
18:59:58,988; -914
18:59:58,992; -903
18:59:58,996; -961
18:59:59,000; -958
18:59:59,004; -992
18:59:59,008; -983
18:59:59,012; -968
18:59:59,016; -1008
18:59:59,020; -977
18:59:59,023; -993
18:59:59,027; -1017
18:59:59,031; -970
18:59:59,035; -1024
18:59:59,039; -963
18:59:59,043; -991
18:59:59,047; -1001
18:59:59,051; -990
18:59:59,055; -1031
18:59:59,059; -978
18:59:59,063; -939
18:59:59,066; -766
18:59:59,070; -529
18:59:59,074; -254
18:59:59,078; 225
18:59:59,082; 872
18:59:59,086; 1259
18:59:59,090; 1459
18:59:59,094; 1422
18:59:59,098; 1137
18:59:59,102; 490
18:59:59,105; -212
18:59:59,109; -931
18:59:59,113; -1093
18:59:59,117; -1116
18:59:59,121; -1222
18:59:59,125; -978
18:59:59,129; -945
18:59:59,133; -935
18:59:59,137; -1056
18:59:59,141; -1077
18:59:59,145; -1102
18:59:59,148; -1046
18:59:59,152; -998
18:59:59,156; -1073
18:59:59,160; -1050
18:59:59,164; -1088
18:59:59,168; -1026
18:59:59,172; -1014
18:59:59,176; -1056
18:59:59,180; -1036
18:59:59,184; -1086
18:59:59,188; -1058
18:59:59,191; -1048
18:59:59,195; -1077
18:59:59,199; -1050
18:59:59,203; -1074
18:59:59,207; -1032
18:59:59,211; -1046
18:59:59,215; -1073
18:59:59,219; -1015
18:59:59,223; -1064
18:59:59,227; -1043
18:59:59,230; -1028
18:59:59,234; -1048
18:59:59,238; -985
18:59:59,242; -1041
18:59:59,246; -985
18:59:59,250; -1008
18:59:59,254; -976
18:59:59,258; -976
18:59:59,262; -983
18:59:59,266; -941
18:59:59,270; -982
18:59:59,273; -928
18:59:59,277; -904
18:59:59,281; -909
18:59:59,285; -872
18:59:59,289; -878
18:59:59,293; -823
18:59:59,297; -846
18:59:59,301; -808
18:59:59,305; -763
18:59:59,309; -786
18:59:59,313; -705
18:59:59,316; -773
18:59:59,320; -666
18:59:59,324; -701
18:59:59,328; -652
18:59:59,332; -602
18:59:59,336; -643
18:59:59,340; -573
18:59:59,344; -574
18:59:59,348; -573
18:59:59,352; -537
18:59:59,355; -564
18:59:59,359; -534
18:59:59,363; -590
18:59:59,367; -610
18:59:59,371; -599
18:59:59,375; -657
18:59:59,379; -676
18:59:59,383; -708
18:59:59,387; -747
18:59:59,391; -794
18:59:59,395; -834
18:59:59,398; -865
18:59:59,402; -885
18:59:59,406; -918
18:59:59,410; -950
18:59:59,414; -967
18:59:59,418; -997
18:59:59,422; -1030
18:59:59,426; -1018
18:59:59,430; -1053
18:59:59,434; -1047
18:59:59,438; -1063
18:59:59,441; -1044
18:59:59,445; -1052
18:59:59,449; -1073
18:59:59,453; -1046
18:59:59,457; -1092
18:59:59,461; -1052
18:59:59,465; -1059
18:59:59,469; -1090
18:59:59,473; -1003
18:59:59,477; -1075
18:59:59,480; -1051
18:59:59,484; -1035
18:59:59,488; -1085
18:59:59,492; -1029
18:59:59,496; -1082
18:59:59,500; -1034
18:59:59,504; -1072
18:59:59,508; -1090
18:59:59,512; -1028
18:59:59,516; -1080
18:59:59,520; -1055
18:59:59,523; -1058
18:59:59,527; -1069
18:59:59,531; -1055
18:59:59,535; -1085
18:59:59,539; -1065
18:59:59,543; -1087
18:59:59,547; -1047
18:59:59,551; -1084
18:59:59,555; -1110
18:59:59,559; -1078
18:59:59,563; -1130
18:59:59,566; -1109
18:59:59,570; -1144
18:59:59,574; -1120
18:59:59,578; -1114
18:59:59,582; -1141
18:59:59,586; -1117
18:59:59,590; -1148
18:59:59,594; -1149
18:59:59,598; -1138
18:59:59,602; -1181
18:59:59,605; -1142
18:59:59,609; -1197
18:59:59,613; -1181
18:59:59,617; -1182
18:59:59,621; -1191
18:59:59,625; -1174
18:59:59,629; -1191
18:59:59,633; -1157
18:59:59,637; -1198
18:59:59,641; -1191
18:59:59,645; -1195
18:59:59,648; -1223
18:59:59,652; -1177
18:59:59,656; -1207
18:59:59,660; -1200
18:59:59,664; -1212
18:59:59,668; -1220
18:59:59,672; -1200
18:59:59,676; -1251
18:59:59,680; -1186
18:59:59,684; -1232
18:59:59,688; -1225
18:59:59,691; -1200
18:59:59,695; -1237
18:59:59,699; -1205
18:59:59,703; -1254
18:59:59,707; -1207
18:59:59,711; -1236
18:59:59,715; -1249
18:59:59,719; -1216
18:59:59,723; -1247
18:59:59,727; -1214
18:59:59,730; -1227
18:59:59,734; -1248
18:59:59,738; -1236
18:59:59,742; -1259
18:59:59,746; -1239
18:59:59,750; -1252
18:59:59,754; -1253
18:59:59,758; -1198
18:59:59,762; -1260
18:59:59,766; -1215
18:59:59,770; -1263
18:59:59,773; -1220
18:59:59,777; -1270
18:59:59,781; -1229
18:59:59,785; -1241
18:59:59,789; -1251
18:59:59,793; -1229
18:59:59,797; -1274
18:59:59,801; -1240
18:59:59,805; -1245
18:59:59,809; -1270
18:59:59,812; -1227
18:59:59,816; -1257
18:59:59,820; -1221
18:59:59,824; -1239
18:59:59,828; -1274
18:59:59,832; -1221
18:59:59,836; -1283
18:59:59,840; -1239
18:59:59,844; -1273
18:59:59,848; -1251
18:59:59,852; -1225
18:59:59,855; -1266
18:59:59,859; -1244
18:59:59,863; -1255
18:59:59,867; -1269
18:59:59,871; -1225
18:59:59,875; -1254
18:59:59,879; -1227
18:59:59,883; -1246
18:59:59,887; -1237
18:59:59,891; -1248
18:59:59,895; -1258
18:59:59,898; -1215
18:59:59,902; -1210
18:59:59,906; -1220
18:59:59,910; -1191
18:59:59,914; -1188
18:59:59,918; -1176
18:59:59,922; -1189
18:59:59,926; -1102
18:59:59,930; -1154
18:59:59,934; -1106
18:59:59,938; -1082
18:59:59,941; -1115
18:59:59,945; -1072
18:59:59,949; -1116
18:59:59,953; -1102
18:59:59,957; -1147
18:59:59,961; -1123
18:59:59,965; -1148
18:59:59,969; -1154
18:59:59,973; -1121
18:59:59,977; -1164
18:59:59,980; -1161
18:59:59,984; -1188
18:59:59,988; -1229
18:59:59,992; -1195
18:59:59,996; -1261
19:00:00,000; -1238
19:00:00,004; -1227
19:00:00,008; -1252
19:00:00,012; -1226
19:00:00,016; -1239
19:00:00,020; -1221
19:00:00,023; -1223
19:00:00,027; -1230
19:00:00,031; -1213
19:00:00,035; -1246
19:00:00,039; -1206
19:00:00,043; -1267
19:00:00,047; -1259
19:00:00,051; -1223
19:00:00,055; -1162
19:00:00,059; -1068
19:00:00,062; -774
19:00:00,066; -390
19:00:00,070; 91
19:00:00,074; 587
19:00:00,078; 1003
19:00:00,082; 1115
19:00:00,086; 1126
19:00:00,090; 827
19:00:00,094; 213
19:00:00,098; -603
19:00:00,102; -1034
19:00:00,105; -1313
19:00:00,109; -1477
19:00:00,113; -1352
19:00:00,117; -1112
19:00:00,121; -1061
19:00:00,125; -1092
19:00:00,129; -1190
19:00:00,133; -1224
19:00:00,137; -1251
19:00:00,141; -1208
19:00:00,145; -1167
19:00:00,148; -1233
19:00:00,152; -1194
19:00:00,156; -1232
19:00:00,160; -1169
19:00:00,164; -1207
19:00:00,168; -1194
19:00:00,172; -1170
19:00:00,176; -1207
19:00:00,180; -1154
19:00:00,184; -1166
19:00:00,188; -1197
19:00:00,191; -1152
19:00:00,195; -1184
19:00:00,199; -1142
19:00:00,203; -1163
19:00:00,207; -1157
19:00:00,211; -1109
19:00:00,215; -1128
19:00:00,219; -1108
19:00:00,223; -1102
19:00:00,227; -1127
19:00:00,230; -1094
19:00:00,234; -1105
19:00:00,238; -1086
19:00:00,242; -1090
19:00:00,246; -1060
19:00:00,250; -1056
19:00:00,254; -1042
19:00:00,258; -1018
19:00:00,262; -1002
19:00:00,266; -986
19:00:00,270; -971
19:00:00,273; -941
19:00:00,277; -937
19:00:00,281; -916
19:00:00,285; -858
19:00:00,289; -875
19:00:00,293; -813
19:00:00,297; -796
19:00:00,301; -787
19:00:00,305; -741
19:00:00,309; -757
19:00:00,312; -687
19:00:00,316; -695
19:00:00,320; -633
19:00:00,324; -598
19:00:00,328; -646
19:00:00,332; -546
19:00:00,336; -576
19:00:00,340; -551
19:00:00,344; -559
19:00:00,348; -547
19:00:00,352; -549
19:00:00,355; -603
19:00:00,359; -608
19:00:00,363; -670
19:00:00,367; -684
19:00:00,371; -721
19:00:00,375; -786
19:00:00,379; -782
19:00:00,383; -840
19:00:00,387; -848
19:00:00,391; -901
19:00:00,395; -945
19:00:00,398; -945
19:00:00,402; -994
19:00:00,406; -986
19:00:00,410; -1023
19:00:00,414; -1008
19:00:00,418; -1008
19:00:00,422; -1062
19:00:00,426; -1028
19:00:00,430; -1067
19:00:00,434; -1042
19:00:00,438; -1036
19:00:00,441; -1063
19:00:00,445; -1012
19:00:00,449; -1046
19:00:00,453; -1040
19:00:00,457; -1022
19:00:00,461; -1037
19:00:00,465; -1007
19:00:00,469; -1031
19:00:00,473; -1006
19:00:00,477; -1016
19:00:00,480; -1008
19:00:00,484; -998
19:00:00,488; -1020
19:00:00,492; -980
19:00:00,496; -1048
19:00:00,500; -980
19:00:00,504; -1011
19:00:00,508; -995
19:00:00,512; -974
19:00:00,516; -1019
19:00:00,520; -960
19:00:00,523; -1012
19:00:00,527; -1001
19:00:00,531; -970
19:00:00,535; -1006
19:00:00,539; -978
19:00:00,543; -994
19:00:00,547; -1014
19:00:00,551; -994
19:00:00,555; -1021
19:00:00,559; -1021
19:00:00,563; -1021
19:00:00,566; -1034
19:00:00,570; -1020
19:00:00,574; -1028
19:00:00,578; -1024
19:00:00,582; -1036
19:00:00,586; -1031
19:00:00,590; -1041
19:00:00,594; -1028
19:00:00,598; -1040
19:00:00,602; -1043
19:00:00,605; -1017
19:00:00,609; -1048
19:00:00,613; -1010
19:00:00,617; -1062
19:00:00,621; -1028
19:00:00,625; -1036
19:00:00,629; -1043
19:00:00,633; -1022
19:00:00,637; -1039
19:00:00,641; -1037
19:00:00,645; -1026
19:00:00,648; -1059
19:00:00,652; -1026
19:00:00,656; -1055
19:00:00,660; -1012
19:00:00,664; -1027
19:00:00,668; -1065
19:00:00,672; -1015
19:00:00,676; -1042
19:00:00,680; -1032
19:00:00,684; -1017
19:00:00,688; -1032
19:00:00,691; -1003
19:00:00,695; -1021
19:00:00,699; -1007
19:00:00,703; -1009
19:00:00,707; -983
19:00:00,711; -995
19:00:00,715; -1017
19:00:00,719; -980
19:00:00,723; -1010
19:00:00,727; -1009
19:00:00,730; -991
19:00:00,734; -1001
19:00:00,738; -989
19:00:00,742; -993
19:00:00,746; -990
19:00:00,750; -980
19:00:00,754; -976
19:00:00,758; -982
19:00:00,762; -1003
19:00:00,766; -974
19:00:00,770; -1002
19:00:00,773; -974
19:00:00,777; -970
19:00:00,781; -999
19:00:00,785; -954
19:00:00,789; -983
19:00:00,793; -975
19:00:00,797; -989
19:00:00,801; -973
19:00:00,805; -958
19:00:00,809; -1001
19:00:00,813; -931
19:00:00,816; -968
19:00:00,820; -969
19:00:00,824; -933
19:00:00,828; -987
19:00:00,832; -948
19:00:00,836; -970
19:00:00,840; -951
19:00:00,844; -963
19:00:00,848; -953
19:00:00,852; -928
19:00:00,855; -956
19:00:00,859; -936
19:00:00,863; -934
19:00:00,867; -938
19:00:00,871; -925
19:00:00,875; -935
19:00:00,879; -881
19:00:00,883; -892
19:00:00,887; -894
19:00:00,891; -855
19:00:00,895; -877
19:00:00,898; -818
19:00:00,902; -842
19:00:00,906; -766
19:00:00,910; -798
19:00:00,914; -784
19:00:00,918; -759
19:00:00,922; -844
19:00:00,926; -812
19:00:00,930; -827
19:00:00,934; -822
19:00:00,938; -860
19:00:00,941; -836
19:00:00,945; -819
19:00:00,949; -864
19:00:00,953; -858
19:00:00,957; -896
19:00:00,961; -895
19:00:00,965; -915
19:00:00,969; -937
19:00:00,973; -915
19:00:00,977; -924
19:00:00,980; -890
19:00:00,984; -888
19:00:00,988; -940
19:00:00,992; -856
19:00:00,996; -932
19:00:01,000; -896
19:00:01,004; -875
19:00:01,008; -905
19:00:01,012; -848
19:00:01,016; -933
19:00:01,020; -863
19:00:01,023; -829
19:00:01,027; -719
19:00:01,031; -469
19:00:01,035; -168
19:00:01,039; 378
19:00:01,043; 813
19:00:01,047; 1246
19:00:01,051; 1531
19:00:01,055; 1401
19:00:01,059; 1281
19:00:01,063; 595
19:00:01,066; -203
19:00:01,070; -752
19:00:01,074; -891
19:00:01,078; -1133
19:00:01,082; -894
19:00:01,086; -754
19:00:01,090; -739
19:00:01,094; -698
19:00:01,098; -872
19:00:01,102; -922
19:00:01,105; -769
19:00:01,109; -842
19:00:01,113; -756
19:00:01,117; -793
19:00:01,121; -869
19:00:01,125; -776
19:00:01,129; -845
19:00:01,133; -769
19:00:01,137; -772
19:00:01,141; -813
19:00:01,145; -784
19:00:01,148; -784
19:00:01,152; -759
19:00:01,156; -781
19:00:01,160; -761
19:00:01,164; -756
19:00:01,168; -741
19:00:01,172; -724
19:00:01,176; -760
19:00:01,180; -719
19:00:01,184; -711
19:00:01,188; -727
19:00:01,191; -691
19:00:01,195; -705
19:00:01,199; -673
19:00:01,203; -713
19:00:01,207; -660
19:00:01,211; -663
19:00:01,215; -657
19:00:01,219; -620
19:00:01,223; -635
19:00:01,227; -594
19:00:01,230; -585
19:00:01,234; -592
19:00:01,238; -526
19:00:01,242; -557
19:00:01,246; -493
19:00:01,250; -492
19:00:01,254; -476
19:00:01,258; -407
19:00:01,262; -406
19:00:01,266; -353
19:00:01,270; -334
19:00:01,273; -303
19:00:01,277; -235
19:00:01,281; -246
19:00:01,285; -198
19:00:01,289; -210
19:00:01,293; -136
19:00:01,297; -141
19:00:01,301; -146
19:00:01,305; -100
19:00:01,309; -117
19:00:01,312; -71
19:00:01,316; -122
19:00:01,320; -101
19:00:01,324; -111
19:00:01,328; -178
19:00:01,332; -157
19:00:01,336; -273
19:00:01,340; -262
19:00:01,344; -321
19:00:01,348; -373
19:00:01,352; -377
19:00:01,355; -434
19:00:01,359; -452
19:00:01,363; -477
19:00:01,367; -509
19:00:01,371; -524
19:00:01,375; -563
19:00:01,379; -546
19:00:01,383; -593
19:00:01,387; -602
19:00:01,391; -590
19:00:01,395; -624
19:00:01,398; -603
19:00:01,402; -624
19:00:01,406; -612
19:00:01,410; -593
19:00:01,414; -606
19:00:01,418; -602
19:00:01,422; -605
19:00:01,426; -598
19:00:01,430; -589
19:00:01,434; -586
19:00:01,438; -575
19:00:01,441; -561
19:00:01,445; -566
19:00:01,449; -570
19:00:01,453; -549
19:00:01,457; -558
19:00:01,461; -544
19:00:01,465; -527
19:00:01,469; -566
19:00:01,473; -517
19:00:01,477; -562
19:00:01,480; -553
19:00:01,484; -536
19:00:01,488; -561
19:00:01,492; -536
19:00:01,496; -542
19:00:01,500; -533
19:00:01,504; -527
19:00:01,508; -570
19:00:01,512; -534
19:00:01,516; -562
19:00:01,520; -544
19:00:01,523; -553
19:00:01,527; -540
19:00:01,531; -540
19:00:01,535; -567
19:00:01,539; -555
19:00:01,543; -558
19:00:01,547; -560
19:00:01,551; -566
19:00:01,555; -572
19:00:01,559; -548
19:00:01,562; -603
19:00:01,566; -556
19:00:01,570; -581
19:00:01,574; -592
19:00:01,578; -560
19:00:01,582; -594
19:00:01,586; -560
19:00:01,590; -572
19:00:01,594; -567
19:00:01,598; -558
19:00:01,602; -603
19:00:01,605; -574
19:00:01,609; -596
19:00:01,613; -580
19:00:01,617; -581
19:00:01,621; -581
19:00:01,625; -560
19:00:01,629; -576
19:00:01,633; -572
19:00:01,637; -566
19:00:01,641; -582
19:00:01,645; -554
19:00:01,648; -589
19:00:01,652; -569
19:00:01,656; -572
19:00:01,660; -586
19:00:01,664; -573
19:00:01,668; -584
19:00:01,672; -553
19:00:01,676; -561
19:00:01,680; -560
19:00:01,684; -556
19:00:01,688; -573
19:00:01,691; -536
19:00:01,695; -565
19:00:01,699; -537
19:00:01,703; -551
19:00:01,707; -551
19:00:01,711; -554
19:00:01,715; -576
19:00:01,719; -538
19:00:01,723; -576
19:00:01,727; -560
19:00:01,730; -534
19:00:01,734; -567
19:00:01,738; -547
19:00:01,742; -559
19:00:01,746; -547
19:00:01,750; -557
19:00:01,754; -548
19:00:01,758; -512
19:00:01,762; -536
19:00:01,766; -534
19:00:01,770; -519
19:00:01,773; -530
19:00:01,777; -543
19:00:01,781; -532
19:00:01,785; -520
19:00:01,789; -532
19:00:01,793; -515
19:00:01,797; -547
19:00:01,801; -526
19:00:01,805; -515
19:00:01,809; -544
19:00:01,812; -501
19:00:01,816; -544
19:00:01,820; -516
19:00:01,824; -503
19:00:01,828; -534
19:00:01,832; -506
19:00:01,836; -507
19:00:01,840; -472
19:00:01,844; -475
19:00:01,848; -500
19:00:01,852; -422
19:00:01,855; -458
19:00:01,859; -440
19:00:01,863; -389
19:00:01,867; -405
19:00:01,871; -348
19:00:01,875; -366
19:00:01,879; -320
19:00:01,883; -351
19:00:01,887; -366
19:00:01,891; -368
19:00:01,895; -411
19:00:01,898; -382
19:00:01,902; -397
19:00:01,906; -416
19:00:01,910; -396
19:00:01,914; -423
19:00:01,918; -424
19:00:01,922; -482
19:00:01,926; -434
19:00:01,930; -491
19:00:01,934; -486
19:00:01,938; -479
19:00:01,941; -492
19:00:01,945; -461
19:00:01,949; -498
19:00:01,953; -470
19:00:01,957; -464
19:00:01,961; -492
19:00:01,965; -469
19:00:01,969; -476
19:00:01,973; -447
19:00:01,977; -478
19:00:01,980; -485
19:00:01,984; -497
19:00:01,988; -492
19:00:01,992; -391
19:00:01,996; -321
19:00:02,000; -66
19:00:02,004; 280
19:00:02,008; 760
19:00:02,012; 1278
19:00:02,016; 1708
19:00:02,020; 1813
19:00:02,023; 1903
19:00:02,027; 1590
19:00:02,031; 1009
19:00:02,035; 221
19:00:02,039; -395
19:00:02,043; -512
19:00:02,047; -754
19:00:02,051; -615
19:00:02,055; -439
19:00:02,059; -238
19:00:02,062; -343
19:00:02,066; -375
19:00:02,070; -471
19:00:02,074; -426
19:00:02,078; -387
19:00:02,082; -395
19:00:02,086; -428
19:00:02,090; -429
19:00:02,094; -419
19:00:02,098; -399
19:00:02,102; -423
19:00:02,105; -409
19:00:02,109; -443
19:00:02,113; -433
19:00:02,117; -409
19:00:02,121; -419
19:00:02,125; -397
19:00:02,129; -394
19:00:02,133; -375
19:00:02,137; -391
19:00:02,141; -382
19:00:02,145; -364
19:00:02,148; -395
19:00:02,152; -350
19:00:02,156; -393
19:00:02,160; -358
19:00:02,164; -345
19:00:02,168; -358
19:00:02,172; -299
19:00:02,176; -336
19:00:02,180; -299
19:00:02,184; -273
19:00:02,188; -303
19:00:02,191; -226
19:00:02,195; -279
19:00:02,199; -206
19:00:02,203; -235
19:00:02,207; -226
19:00:02,211; -179
19:00:02,215; -192
19:00:02,219; -129
19:00:02,223; -121
19:00:02,227; -77
19:00:02,230; -19
19:00:02,234; -42
19:00:02,238; 27
19:00:02,242; 56
19:00:02,246; 45
19:00:02,250; 90
19:00:02,254; 110
19:00:02,258; 161
19:00:02,262; 140
19:00:02,266; 177
19:00:02,270; 217
19:00:02,273; 210
19:00:02,277; 242
19:00:02,281; 246
19:00:02,285; 272
19:00:02,289; 241
19:00:02,293; 228
19:00:02,297; 205
19:00:02,301; 149
19:00:02,305; 136
19:00:02,309; 54
19:00:02,313; 44
19:00:02,316; -36
19:00:02,320; -54
19:00:02,324; -83
19:00:02,328; -170
19:00:02,332; -157
19:00:02,336; -191
19:00:02,340; -226
19:00:02,344; -217
19:00:02,348; -264
19:00:02,352; -235
19:00:02,355; -303
19:00:02,359; -310
19:00:02,363; -321
19:00:02,367; -326
19:00:02,371; -309
19:00:02,375; -333
19:00:02,379; -305
19:00:02,383; -330
19:00:02,387; -309
19:00:02,391; -335
19:00:02,395; -340
19:00:02,398; -303
19:00:02,402; -316
19:00:02,406; -309
19:00:02,410; -299
19:00:02,414; -288
19:00:02,418; -280
19:00:02,422; -302
19:00:02,426; -259
19:00:02,430; -290
19:00:02,434; -286
19:00:02,438; -263
19:00:02,441; -270
19:00:02,445; -246
19:00:02,449; -270
19:00:02,453; -277
19:00:02,457; -244
19:00:02,461; -308
19:00:02,465; -260
19:00:02,469; -297
19:00:02,473; -257
19:00:02,477; -274
19:00:02,480; -303
19:00:02,484; -296
19:00:02,488; -312
19:00:02,492; -277
19:00:02,496; -326
19:00:02,500; -304
19:00:02,504; -287
19:00:02,508; -331
19:00:02,512; -307
19:00:02,516; -335
19:00:02,520; -314
19:00:02,523; -318
19:00:02,527; -356
19:00:02,531; -315
19:00:02,535; -374
19:00:02,539; -329
19:00:02,543; -357
19:00:02,547; -370
19:00:02,551; -345
19:00:02,555; -366
19:00:02,559; -356
19:00:02,563; -355
19:00:02,566; -356
19:00:02,570; -315
19:00:02,574; -372
19:00:02,578; -348
19:00:02,582; -369
19:00:02,586; -389
19:00:02,590; -345
19:00:02,594; -388
19:00:02,598; -339
19:00:02,602; -329
19:00:02,605; -342
19:00:02,609; -321
19:00:02,613; -319
19:00:02,617; -281
19:00:02,621; -319
19:00:02,625; -260
19:00:02,629; -277
19:00:02,633; -231
19:00:02,637; -240
19:00:02,641; -237
19:00:02,645; -211
19:00:02,648; -224
19:00:02,652; -224
19:00:02,656; -246
19:00:02,660; -235
19:00:02,664; -257
19:00:02,668; -283
19:00:02,672; -270
19:00:02,676; -309
19:00:02,680; -319
19:00:02,684; -335
19:00:02,688; -412
19:00:02,691; -393
19:00:02,695; -417
19:00:02,699; -413
19:00:02,703; -413
19:00:02,707; -453
19:00:02,711; -375
19:00:02,715; -446
19:00:02,719; -416
19:00:02,723; -397
19:00:02,727; -423
19:00:02,730; -402
19:00:02,734; -447
19:00:02,738; -397
19:00:02,742; -443
19:00:02,746; -395
19:00:02,750; -403
19:00:02,754; -451
19:00:02,758; -424
19:00:02,762; -392
19:00:02,766; -254
19:00:02,770; -99
19:00:02,773; 106
19:00:02,777; 454
19:00:02,781; 1268
19:00:02,785; 1680
19:00:02,789; 1867
19:00:02,793; 2037
19:00:02,797; 1879
19:00:02,801; 1072
19:00:02,805; 355
19:00:02,809; -269
19:00:02,813; -478
19:00:02,816; -688
19:00:02,820; -599
19:00:02,824; -415
19:00:02,828; -376
19:00:02,832; -250
19:00:02,836; -360
19:00:02,840; -441
19:00:02,844; -359
19:00:02,848; -418
19:00:02,852; -317
19:00:02,855; -389
19:00:02,859; -404
19:00:02,863; -413
19:00:02,867; -422
19:00:02,871; -392
19:00:02,875; -411
19:00:02,879; -383
19:00:02,883; -393
19:00:02,887; -414
19:00:02,891; -401
19:00:02,895; -424
19:00:02,898; -376
19:00:02,902; -370
19:00:02,906; -353
19:00:02,910; -316
19:00:02,914; -378
19:00:02,918; -328
19:00:02,922; -354
19:00:02,926; -356
19:00:02,930; -341
19:00:02,934; -352
19:00:02,938; -311
19:00:02,941; -346
19:00:02,945; -312
19:00:02,949; -295
19:00:02,953; -322
19:00:02,957; -298
19:00:02,961; -314
19:00:02,965; -266
19:00:02,969; -264
19:00:02,973; -233
19:00:02,977; -220
19:00:02,980; -194
19:00:02,984; -188
19:00:02,988; -183
19:00:02,992; -141
19:00:02,996; -119
19:00:03,000; -63
19:00:03,004; -44
19:00:03,008; -38
19:00:03,012; 55
19:00:03,016; 0
19:00:03,020; 36
19:00:03,023; 72
19:00:03,027; 101
19:00:03,031; 166
19:00:03,035; 141
19:00:03,039; 205
19:00:03,043; 220
19:00:03,047; 160
19:00:03,051; 213
19:00:03,055; 202
19:00:03,059; 188
19:00:03,062; 141
19:00:03,066; 62
19:00:03,070; 50
19:00:03,074; -10
19:00:03,078; -62
19:00:03,082; -88
19:00:03,086; -143
19:00:03,090; -174
19:00:03,094; -253
19:00:03,098; -249
19:00:03,102; -275
19:00:03,105; -256
19:00:03,109; -326
19:00:03,113; -317
19:00:03,117; -341
19:00:03,121; -351
19:00:03,125; -360
19:00:03,129; -383
19:00:03,133; -364
19:00:03,137; -370
19:00:03,141; -399
19:00:03,145; -369
19:00:03,148; -395
19:00:03,152; -362
19:00:03,156; -391
19:00:03,160; -392
19:00:03,164; -356
19:00:03,168; -386
19:00:03,172; -368
19:00:03,176; -378
19:00:03,180; -366
19:00:03,184; -354
19:00:03,188; -377
19:00:03,191; -339
19:00:03,195; -343
19:00:03,199; -340
19:00:03,203; -363
19:00:03,207; -358
19:00:03,211; -350
19:00:03,215; -362
19:00:03,219; -354
19:00:03,223; -363
19:00:03,227; -374
19:00:03,230; -325
19:00:03,234; -384
19:00:03,238; -329
19:00:03,242; -363
19:00:03,246; -347
19:00:03,250; -356
19:00:03,254; -391
19:00:03,258; -375
19:00:03,262; -394
19:00:03,266; -379
19:00:03,270; -386
19:00:03,273; -398
19:00:03,277; -381
19:00:03,281; -416
19:00:03,285; -411
19:00:03,289; -386
19:00:03,293; -343
19:00:03,297; -344
19:00:03,301; -339
19:00:03,305; -299
19:00:03,309; -337
19:00:03,312; -291
19:00:03,316; -320
19:00:03,320; -301
19:00:03,324; -304
19:00:03,328; -331
19:00:03,332; -307
19:00:03,336; -335
19:00:03,340; -333
19:00:03,344; -321
19:00:03,348; -346
19:00:03,352; -338
19:00:03,355; -413
19:00:03,359; -393
19:00:03,363; -417
19:00:03,367; -470
19:00:03,371; -442
19:00:03,375; -505
19:00:03,379; -477
19:00:03,383; -493
19:00:03,387; -491
19:00:03,391; -467
19:00:03,395; -491
19:00:03,398; -448
19:00:03,402; -481
19:00:03,406; -498
19:00:03,410; -472
19:00:03,414; -490
19:00:03,418; -503
19:00:03,422; -504
19:00:03,426; -530
19:00:03,430; -531
19:00:03,434; -536
19:00:03,438; -456
19:00:03,441; -362
19:00:03,445; -196
19:00:03,449; 67
19:00:03,453; 368
19:00:03,457; 945
19:00:03,461; 1388
19:00:03,465; 1831
19:00:03,469; 1851
19:00:03,473; 1903
19:00:03,477; 1558
19:00:03,480; 777
19:00:03,484; -100
19:00:03,488; -448
19:00:03,492; -621
19:00:03,496; -824
19:00:03,500; -693
19:00:03,504; -370
19:00:03,508; -314
19:00:03,512; -429
19:00:03,516; -496
19:00:03,520; -512
19:00:03,523; -504
19:00:03,527; -446
19:00:03,531; -480
19:00:03,535; -516
19:00:03,539; -478
19:00:03,543; -434
19:00:03,547; -495
19:00:03,551; -455
19:00:03,555; -496
19:00:03,559; -436
19:00:03,562; -473
19:00:03,566; -458
19:00:03,570; -433
19:00:03,574; -471
19:00:03,578; -419
19:00:03,582; -431
19:00:03,586; -461
19:00:03,590; -416
19:00:03,594; -419
19:00:03,598; -407
19:00:03,602; -420
19:00:03,605; -399
19:00:03,609; -407
19:00:03,613; -399
19:00:03,617; -364
19:00:03,621; -429
19:00:03,625; -350
19:00:03,629; -352
19:00:03,633; -353
19:00:03,637; -349
19:00:03,641; -359
19:00:03,645; -286
19:00:03,648; -321
19:00:03,652; -288
19:00:03,656; -247
19:00:03,660; -231
19:00:03,664; -228
19:00:03,668; -192
19:00:03,672; -162
19:00:03,676; -122
19:00:03,680; -108
19:00:03,684; -45
19:00:03,688; -68
19:00:03,691; -10
19:00:03,695; 8
19:00:03,699; 49
19:00:03,703; 64
19:00:03,707; 105
19:00:03,711; 110
19:00:03,715; 77
19:00:03,719; 112
19:00:03,723; 123
19:00:03,727; 85
19:00:03,730; 144
19:00:03,734; 65
19:00:03,738; 79
19:00:03,742; 13
19:00:03,746; -61
19:00:03,750; -57
19:00:03,754; -141
19:00:03,758; -152
19:00:03,762; -200
19:00:03,766; -280
19:00:03,770; -266
19:00:03,773; -343
19:00:03,777; -358
19:00:03,781; -347
19:00:03,785; -378
19:00:03,789; -378
19:00:03,793; -410
19:00:03,797; -414
19:00:03,801; -434
19:00:03,805; -431
19:00:03,809; -435
19:00:03,813; -419
19:00:03,816; -431
19:00:03,820; -459
19:00:03,824; -434
19:00:03,828; -467
19:00:03,832; -436
19:00:03,836; -424
19:00:03,840; -424
19:00:03,844; -410
19:00:03,848; -455
19:00:03,852; -409
19:00:03,855; -458
19:00:03,859; -418
19:00:03,863; -402
19:00:03,867; -443
19:00:03,871; -372
19:00:03,875; -413
19:00:03,879; -417
19:00:03,883; -380
19:00:03,887; -432
19:00:03,891; -391
19:00:03,895; -415
19:00:03,898; -397
19:00:03,902; -380
19:00:03,906; -399
19:00:03,910; -374
19:00:03,914; -420
19:00:03,918; -401
19:00:03,922; -442
19:00:03,926; -391
19:00:03,930; -389
19:00:03,934; -408
19:00:03,938; -373
19:00:03,941; -427
19:00:03,945; -392
19:00:03,949; -417
19:00:03,953; -423
19:00:03,957; -390
19:00:03,961; -422
19:00:03,965; -394
19:00:03,969; -459
19:00:03,973; -400
19:00:03,977; -387
19:00:03,980; -395
19:00:03,984; -360
19:00:03,988; -378
19:00:03,992; -357
19:00:03,996; -333
19:00:04,000; -317
19:00:04,004; -300
19:00:04,008; -341
19:00:04,012; -293
19:00:04,016; -357
19:00:04,020; -389
19:00:04,023; -358
19:00:04,027; -389
19:00:04,031; -370
19:00:04,035; -380
19:00:04,039; -396
19:00:04,043; -380
19:00:04,047; -461
19:00:04,051; -433
19:00:04,055; -458
19:00:04,059; -500
19:00:04,063; -499
19:00:04,066; -517
19:00:04,070; -481
19:00:04,074; -547
19:00:04,078; -486
19:00:04,082; -514
19:00:04,086; -532
19:00:04,090; -509
19:00:04,094; -532
19:00:04,098; -490
19:00:04,102; -566
19:00:04,105; -467
19:00:04,109; -490
19:00:04,113; -515
19:00:04,117; -486
19:00:04,121; -470
19:00:04,125; -438
19:00:04,129; -285
19:00:04,133; -129
19:00:04,137; 193
19:00:04,141; 913
19:00:04,145; 1302
19:00:04,148; 1845
19:00:04,152; 1928
19:00:04,156; 2021
19:00:04,160; 1685
19:00:04,164; 976
19:00:04,168; 244
19:00:04,172; -375
19:00:04,176; -588
19:00:04,180; -646
19:00:04,184; -704
19:00:04,188; -450
19:00:04,191; -235
19:00:04,195; -461
19:00:04,199; -450
19:00:04,203; -522
19:00:04,207; -505
19:00:04,211; -449
19:00:04,215; -501
19:00:04,219; -460
19:00:04,223; -514
19:00:04,227; -519
19:00:04,230; -448
19:00:04,234; -507
19:00:04,238; -478
19:00:04,242; -520
19:00:04,246; -523
19:00:04,250; -418
19:00:04,254; -477
19:00:04,258; -426
19:00:04,262; -462
19:00:04,266; -480
19:00:04,270; -451
19:00:04,273; -470
19:00:04,277; -431
19:00:04,281; -433
19:00:04,285; -378
19:00:04,289; -404
19:00:04,293; -417
19:00:04,297; -409
19:00:04,301; -415
19:00:04,305; -350
19:00:04,309; -373
19:00:04,313; -345
19:00:04,316; -343
19:00:04,320; -346
19:00:04,324; -304
19:00:04,328; -346
19:00:04,332; -294
19:00:04,336; -269
19:00:04,340; -273
19:00:04,344; -207
19:00:04,348; -243
19:00:04,352; -174
19:00:04,355; -147
19:00:04,359; -129
19:00:04,363; -73
19:00:04,367; -71
19:00:04,371; 5
19:00:04,375; -11
19:00:04,379; 44
19:00:04,383; 78
19:00:04,387; 72
19:00:04,391; 133
19:00:04,395; 131
19:00:04,398; 145
19:00:04,402; 130
19:00:04,406; 141
19:00:04,410; 170
19:00:04,414; 115
19:00:04,418; 95
19:00:04,422; 49
19:00:04,426; -2
19:00:04,430; -37
19:00:04,434; -111
19:00:04,438; -102
19:00:04,441; -158
19:00:04,445; -191
19:00:04,449; -221
19:00:04,453; -274
19:00:04,457; -241
19:00:04,461; -321
19:00:04,465; -315
19:00:04,469; -333
19:00:04,473; -374
19:00:04,477; -341
19:00:04,480; -430
19:00:04,484; -393
19:00:04,488; -380
19:00:04,492; -410
19:00:04,496; -385
19:00:04,500; -400
19:00:04,504; -380
19:00:04,508; -375
19:00:04,512; -378
19:00:04,516; -369
19:00:04,520; -401
19:00:04,523; -365
19:00:04,527; -397
19:00:04,531; -353
19:00:04,535; -395
19:00:04,539; -368
19:00:04,543; -356
19:00:04,547; -387
19:00:04,551; -358
19:00:04,555; -418
19:00:04,559; -349
19:00:04,562; -337
19:00:04,566; -401
19:00:04,570; -296
19:00:04,574; -351
19:00:04,578; -317
19:00:04,582; -343
19:00:04,586; -346
19:00:04,590; -319
19:00:04,594; -365
19:00:04,598; -313
19:00:04,602; -319
19:00:04,605; -350
19:00:04,609; -309
19:00:04,613; -343
19:00:04,617; -326
19:00:04,621; -346
19:00:04,625; -360
19:00:04,629; -337
19:00:04,633; -361
19:00:04,637; -342
19:00:04,641; -370
19:00:04,645; -361
19:00:04,648; -365
19:00:04,652; -372
19:00:04,656; -354
19:00:04,660; -392
19:00:04,664; -359
19:00:04,668; -364
19:00:04,672; -381
19:00:04,676; -373
19:00:04,680; -397
19:00:04,684; -355
19:00:04,688; -389
19:00:04,691; -382
19:00:04,695; -393
19:00:04,699; -376
19:00:04,703; -385
19:00:04,707; -427
19:00:04,711; -364
19:00:04,715; -406
19:00:04,719; -405
19:00:04,723; -393
19:00:04,727; -417
19:00:04,730; -355
19:00:04,734; -422
19:00:04,738; -373
19:00:04,742; -417
19:00:04,746; -423
19:00:04,750; -391
19:00:04,754; -426
19:00:04,758; -383
19:00:04,762; -398
19:00:04,766; -375
19:00:04,770; -387
19:00:04,773; -424
19:00:04,777; -391
19:00:04,781; -402
19:00:04,785; -392
19:00:04,789; -381
19:00:04,793; -397
19:00:04,797; -367
19:00:04,801; -394
19:00:04,805; -391
19:00:04,809; -400
19:00:04,812; -405
19:00:04,816; -383
19:00:04,820; -388
19:00:04,824; -361
19:00:04,828; -411
19:00:04,832; -382
19:00:04,836; -369
19:00:04,840; -397
19:00:04,844; -373
19:00:04,848; -384
19:00:04,852; -385
19:00:04,855; -384
19:00:04,859; -402
19:00:04,863; -367
19:00:04,867; -382
19:00:04,871; -360
19:00:04,875; -345
19:00:04,879; -370
19:00:04,883; -372
19:00:04,887; -387
19:00:04,891; -365
19:00:04,895; -409
19:00:04,898; -347
19:00:04,902; -358
19:00:04,906; -369
19:00:04,910; -352
19:00:04,914; -383
19:00:04,918; -369
19:00:04,922; -394
19:00:04,926; -389
19:00:04,930; -357
19:00:04,934; -406
19:00:04,938; -359
19:00:04,941; -405
19:00:04,945; -393
19:00:04,949; -365
19:00:04,953; -398
19:00:04,957; -373
19:00:04,961; -356
19:00:04,965; -377
19:00:04,969; -350
19:00:04,973; -366
19:00:04,977; -369
19:00:04,980; -374
19:00:04,984; -364
19:00:04,988; -373
19:00:04,992; -365
19:00:04,996; -354
19:00:05,000; -369
19:00:05,004; -345
19:00:05,008; -360
19:00:05,012; -336
19:00:05,016; -365
19:00:05,020; -343
19:00:05,023; -357
19:00:05,027; -368
19:00:05,031; -360
19:00:05,035; -356
19:00:05,039; -351
19:00:05,043; -326
19:00:05,047; -373
19:00:05,051; -347
19:00:05,055; -340
19:00:05,059; -316
19:00:05,062; -310
19:00:05,066; -318
19:00:05,070; -237
19:00:05,074; -314
19:00:05,078; -270
19:00:05,082; -252
19:00:05,086; -262
19:00:05,090; -201
19:00:05,094; -223
19:00:05,098; -184
19:00:05,102; -215
19:00:05,105; -193
19:00:05,109; -227
19:00:05,113; -258
19:00:05,117; -232
19:00:05,121; -256
19:00:05,125; -246
19:00:05,129; -226
19:00:05,133; -265
19:00:05,137; -256
19:00:05,141; -326
19:00:05,145; -319
19:00:05,148; -348
19:00:05,152; -348
19:00:05,156; -327
19:00:05,160; -334
19:00:05,164; -337
19:00:05,168; -330
19:00:05,172; -346
19:00:05,176; -324
19:00:05,180; -347
19:00:05,184; -300
19:00:05,188; -347
19:00:05,191; -301
19:00:05,195; -315
19:00:05,199; -345
19:00:05,203; -311
19:00:05,207; -281
19:00:05,211; -148
19:00:05,215; -13
19:00:05,219; 344
19:00:05,223; 790
19:00:05,227; 1306
19:00:05,230; 1776
19:00:05,234; 2050
19:00:05,238; 2117
19:00:05,242; 1987
19:00:05,246; 1556
19:00:05,250; 804
19:00:05,254; 201
19:00:05,258; -325
19:00:05,262; -457
19:00:05,266; -440
19:00:05,270; -381
19:00:05,273; -178
19:00:05,277; -157
19:00:05,281; -202
19:00:05,285; -357
19:00:05,289; -312
19:00:05,293; -335
19:00:05,297; -220
19:00:05,301; -327
19:00:05,305; -353
19:00:05,309; -349
19:00:05,313; -340
19:00:05,316; -281
19:00:05,320; -313
19:00:05,324; -284
19:00:05,328; -306
19:00:05,332; -298
19:00:05,336; -310
19:00:05,340; -284
19:00:05,344; -282
19:00:05,348; -285
19:00:05,352; -255
19:00:05,355; -263
19:00:05,359; -274
19:00:05,363; -256
19:00:05,367; -266
19:00:05,371; -227
19:00:05,375; -253
19:00:05,379; -238
19:00:05,383; -214
19:00:05,387; -249
19:00:05,391; -189
19:00:05,395; -227
19:00:05,398; -170
19:00:05,402; -172
19:00:05,406; -211
19:00:05,410; -132
19:00:05,414; -168
19:00:05,418; -143
19:00:05,422; -114
19:00:05,426; -131
19:00:05,430; -48
19:00:05,434; -107
19:00:05,438; -40
19:00:05,441; -30
19:00:05,445; -23
19:00:05,449; 38
19:00:05,453; 33
19:00:05,457; 92
19:00:05,461; 92
19:00:05,465; 135
19:00:05,469; 165
19:00:05,473; 149
19:00:05,477; 208
19:00:05,480; 226
19:00:05,484; 216
19:00:05,488; 269
19:00:05,492; 263
19:00:05,496; 288
19:00:05,500; 287
19:00:05,504; 314
19:00:05,508; 288
19:00:05,512; 276
19:00:05,516; 251
19:00:05,520; 219
19:00:05,523; 204
19:00:05,527; 153
19:00:05,531; 113
19:00:05,535; 108
19:00:05,539; 29
19:00:05,543; 23
19:00:05,547; -31
19:00:05,551; -60
19:00:05,555; -60
19:00:05,559; -111
19:00:05,563; -98
19:00:05,566; -146
19:00:05,570; -156
19:00:05,574; -184
19:00:05,578; -175
19:00:05,582; -189
19:00:05,586; -227
19:00:05,590; -174
19:00:05,594; -201
19:00:05,598; -192
19:00:05,602; -207
19:00:05,605; -192
19:00:05,609; -186
19:00:05,613; -212
19:00:05,617; -183
19:00:05,621; -223
19:00:05,625; -170
19:00:05,629; -173
19:00:05,633; -195
19:00:05,637; -154
19:00:05,641; -176
19:00:05,645; -174
19:00:05,648; -160
19:00:05,652; -171
19:00:05,656; -135
19:00:05,660; -167
19:00:05,664; -135
19:00:05,668; -178
19:00:05,672; -165
19:00:05,676; -160
19:00:05,680; -181
19:00:05,684; -152
19:00:05,688; -185
19:00:05,691; -154
19:00:05,695; -181
19:00:05,699; -208
19:00:05,703; -194
19:00:05,707; -232
19:00:05,711; -194
19:00:05,715; -245
19:00:05,719; -211
19:00:05,723; -219
19:00:05,727; -250
19:00:05,730; -229
19:00:05,734; -271
19:00:05,738; -255
19:00:05,742; -253
19:00:05,746; -284
19:00:05,750; -244
19:00:05,754; -306
19:00:05,758; -264
19:00:05,762; -291
19:00:05,766; -302
19:00:05,770; -276
19:00:05,773; -298
19:00:05,777; -289
19:00:05,781; -288
19:00:05,785; -315
19:00:05,789; -283
19:00:05,793; -321
19:00:05,797; -301
19:00:05,801; -315
19:00:05,805; -330
19:00:05,809; -283
19:00:05,813; -336
19:00:05,816; -306
19:00:05,820; -300
19:00:05,824; -331
19:00:05,828; -327
19:00:05,832; -333
19:00:05,836; -319
19:00:05,840; -328
19:00:05,844; -328
19:00:05,848; -317
19:00:05,852; -333
19:00:05,855; -314
19:00:05,859; -338
19:00:05,863; -290
19:00:05,867; -336
19:00:05,871; -289
19:00:05,875; -304
19:00:05,879; -335
19:00:05,883; -301
19:00:05,887; -350
19:00:05,891; -297
19:00:05,895; -341
19:00:05,898; -336
19:00:05,902; -321
19:00:05,906; -371
19:00:05,910; -306
19:00:05,914; -379
19:00:05,918; -341
19:00:05,922; -346
19:00:05,926; -344
19:00:05,930; -327
19:00:05,934; -356
19:00:05,938; -330
19:00:05,941; -354
19:00:05,945; -357
19:00:05,949; -355
19:00:05,953; -372
19:00:05,957; -335
19:00:05,961; -341
19:00:05,965; -330
19:00:05,969; -322
19:00:05,973; -342
19:00:05,977; -308
19:00:05,980; -334
19:00:05,984; -331
19:00:05,988; -342
19:00:05,992; -349
19:00:05,996; -323
19:00:06,000; -364
19:00:06,004; -330
19:00:06,008; -337
19:00:06,012; -355
19:00:06,016; -322
19:00:06,020; -376
19:00:06,023; -323
19:00:06,027; -362
19:00:06,031; -327
19:00:06,035; -314
19:00:06,039; -343
19:00:06,043; -325
19:00:06,047; -358
19:00:06,051; -321
19:00:06,055; -311
19:00:06,059; -315
19:00:06,062; -273
19:00:06,066; -298
19:00:06,070; -245
19:00:06,074; -296
19:00:06,078; -242
19:00:06,082; -237
19:00:06,086; -238
19:00:06,090; -199
19:00:06,094; -239
19:00:06,098; -219
19:00:06,102; -230
19:00:06,105; -250
19:00:06,109; -236
19:00:06,113; -288
19:00:06,117; -238
19:00:06,121; -280
19:00:06,125; -265
19:00:06,129; -269
19:00:06,133; -331
19:00:06,137; -313
19:00:06,141; -374
19:00:06,145; -362
19:00:06,148; -350
19:00:06,152; -390
19:00:06,156; -359
19:00:06,160; -360
19:00:06,164; -366
19:00:06,168; -364
19:00:06,172; -358
19:00:06,176; -358
19:00:06,180; -377
19:00:06,184; -375
19:00:06,188; -381
19:00:06,191; -365
19:00:06,195; -376
19:00:06,199; -381
19:00:06,203; -339
19:00:06,207; -278
19:00:06,211; -139
19:00:06,215; 53
19:00:06,219; 585
19:00:06,223; 1208
19:00:06,227; 1617
19:00:06,230; 2065
19:00:06,234; 2195
19:00:06,238; 2083
19:00:06,242; 1580
19:00:06,246; 829
19:00:06,250; 276
19:00:06,254; -271
19:00:06,258; -470
19:00:06,262; -502
19:00:06,266; -430
19:00:06,270; -306
19:00:06,273; -251
19:00:06,277; -242
19:00:06,281; -375
19:00:06,285; -391
19:00:06,289; -313
19:00:06,293; -332
19:00:06,297; -356
19:00:06,301; -358
19:00:06,305; -346
19:00:06,309; -328
19:00:06,312; -334
19:00:06,316; -336
19:00:06,320; -363
19:00:06,324; -335
19:00:06,328; -360
19:00:06,332; -354
19:00:06,336; -311
19:00:06,340; -355
19:00:06,344; -328
19:00:06,348; -341
19:00:06,352; -329
19:00:06,355; -316
19:00:06,359; -335
19:00:06,363; -281
19:00:06,367; -327
19:00:06,371; -284
19:00:06,375; -266
19:00:06,379; -300
19:00:06,383; -253
19:00:06,387; -267
19:00:06,391; -255
19:00:06,395; -246
19:00:06,398; -240
19:00:06,402; -216
19:00:06,406; -225
19:00:06,410; -193
19:00:06,414; -177
19:00:06,418; -180
19:00:06,422; -141
19:00:06,426; -153
19:00:06,430; -75
19:00:06,434; -83
19:00:06,438; -51
19:00:06,441; -20
19:00:06,445; -17
19:00:06,449; 37
19:00:06,453; 31
19:00:06,457; 83
19:00:06,461; 98
19:00:06,465; 115
19:00:06,469; 177
19:00:06,473; 138
19:00:06,477; 223
19:00:06,480; 217
19:00:06,484; 209
19:00:06,488; 246
19:00:06,492; 221
19:00:06,496; 226
19:00:06,500; 231
19:00:06,504; 220
19:00:06,508; 208
19:00:06,512; 175
19:00:06,516; 131
19:00:06,520; 81
19:00:06,523; 63
19:00:06,527; -1
19:00:06,531; -22
19:00:06,535; -69
19:00:06,539; -125
19:00:06,543; -127
19:00:06,547; -203
19:00:06,551; -205
19:00:06,555; -206
19:00:06,559; -240
19:00:06,562; -244
19:00:06,566; -271
19:00:06,570; -260
19:00:06,574; -308
19:00:06,578; -290
19:00:06,582; -309
19:00:06,586; -335
19:00:06,590; -306
19:00:06,594; -345
19:00:06,598; -304
19:00:06,602; -315
19:00:06,605; -348
19:00:06,609; -299
19:00:06,613; -329
19:00:06,617; -288
19:00:06,621; -309
19:00:06,625; -314
19:00:06,629; -254
19:00:06,633; -317
19:00:06,637; -270
19:00:06,641; -306
19:00:06,645; -286
19:00:06,648; -260
19:00:06,652; -299
19:00:06,656; -250
19:00:06,660; -262
19:00:06,664; -291
19:00:06,668; -244
19:00:06,672; -306
19:00:06,676; -262
19:00:06,680; -292
19:00:06,684; -256
19:00:06,688; -275
19:00:06,691; -270
19:00:06,695; -259
19:00:06,699; -305
19:00:06,703; -273
19:00:06,707; -300
19:00:06,711; -314
19:00:06,715; -312
19:00:06,719; -319
19:00:06,723; -280
19:00:06,727; -343
19:00:06,730; -281
19:00:06,734; -323
19:00:06,738; -347
19:00:06,742; -291
19:00:06,746; -343
19:00:06,750; -312
19:00:06,754; -340
19:00:06,758; -318
19:00:06,762; -325
19:00:06,766; -367
19:00:06,770; -321
19:00:06,773; -349
19:00:06,777; -336
19:00:06,781; -349
19:00:06,785; -362
19:00:06,789; -342
19:00:06,793; -367
19:00:06,797; -351
19:00:06,801; -347
19:00:06,805; -349
19:00:06,809; -334
19:00:06,812; -370
19:00:06,816; -331
19:00:06,820; -390
19:00:06,824; -345
19:00:06,828; -378
19:00:06,832; -388
19:00:06,836; -349
19:00:06,840; -385
19:00:06,844; -350
19:00:06,848; -365
19:00:06,852; -358
19:00:06,855; -348
19:00:06,859; -396
19:00:06,863; -365
19:00:06,867; -390
19:00:06,871; -372
19:00:06,875; -344
19:00:06,879; -395
19:00:06,883; -338
19:00:06,887; -377
19:00:06,891; -380
19:00:06,895; -364
19:00:06,898; -373
19:00:06,902; -365
19:00:06,906; -388
19:00:06,910; -338
19:00:06,914; -392
19:00:06,918; -367
19:00:06,922; -379
19:00:06,926; -381
19:00:06,930; -356
19:00:06,934; -400
19:00:06,938; -349
19:00:06,941; -360
19:00:06,945; -399
19:00:06,949; -314
19:00:06,953; -417
19:00:06,957; -353
19:00:06,961; -347
19:00:06,965; -376
19:00:06,969; -342
19:00:06,973; -381
19:00:06,977; -336
19:00:06,980; -390
19:00:06,984; -377
19:00:06,988; -344
19:00:06,992; -375
19:00:06,996; -352
19:00:07,000; -369
19:00:07,004; -387
19:00:07,008; -341
19:00:07,012; -391
19:00:07,016; -360
19:00:07,020; -355
19:00:07,023; -358
19:00:07,027; -358
19:00:07,031; -330
19:00:07,035; -312
19:00:07,039; -316
19:00:07,043; -257
19:00:07,047; -309
19:00:07,051; -273
19:00:07,055; -255
19:00:07,059; -252
19:00:07,063; -207
19:00:07,066; -240
19:00:07,070; -184
19:00:07,074; -203
19:00:07,078; -241
19:00:07,082; -238
19:00:07,086; -281
19:00:07,090; -232
19:00:07,094; -284
19:00:07,098; -280
19:00:07,102; -260
19:00:07,105; -281
19:00:07,109; -287
19:00:07,113; -350
19:00:07,117; -319
19:00:07,121; -343
19:00:07,125; -378
19:00:07,129; -327
19:00:07,133; -379
19:00:07,137; -339
19:00:07,141; -372
19:00:07,145; -354
19:00:07,148; -359
19:00:07,152; -365
19:00:07,156; -332
19:00:07,160; -377
19:00:07,164; -359
19:00:07,168; -357
19:00:07,172; -411
19:00:07,176; -374
19:00:07,180; -368
19:00:07,184; -276
19:00:07,188; -142
19:00:07,191; 59
19:00:07,195; 421
19:00:07,199; 1077
19:00:07,203; 1450
19:00:07,207; 1969
19:00:07,211; 2046
19:00:07,215; 1980
19:00:07,219; 1559
19:00:07,223; 783
19:00:07,227; 117
19:00:07,230; -279
19:00:07,234; -495
19:00:07,238; -460
19:00:07,242; -302
19:00:07,246; -243
19:00:07,250; -178
19:00:07,254; -275
19:00:07,258; -323
19:00:07,262; -371
19:00:07,266; -391
19:00:07,270; -250
19:00:07,273; -341
19:00:07,277; -326
19:00:07,281; -350
19:00:07,285; -331
19:00:07,289; -272
19:00:07,293; -336
19:00:07,297; -285
19:00:07,301; -324
19:00:07,305; -303
19:00:07,309; -274
19:00:07,313; -318
19:00:07,316; -292
19:00:07,320; -305
19:00:07,324; -322
19:00:07,328; -273
19:00:07,332; -305
19:00:07,336; -274
19:00:07,340; -295
19:00:07,344; -286
19:00:07,348; -269
19:00:07,352; -283
19:00:07,355; -227
19:00:07,359; -258
19:00:07,363; -227
19:00:07,367; -217
19:00:07,371; -215
19:00:07,375; -187
19:00:07,379; -193
19:00:07,383; -167
19:00:07,387; -165
19:00:07,391; -147
19:00:07,395; -141
19:00:07,398; -106
19:00:07,402; -91
19:00:07,406; -85
19:00:07,410; -43
19:00:07,414; -23
19:00:07,418; -24
19:00:07,422; 42
19:00:07,426; 31
19:00:07,430; 93
19:00:07,434; 106
19:00:07,438; 141
19:00:07,441; 189
19:00:07,445; 199
19:00:07,449; 273
19:00:07,453; 232
19:00:07,457; 293
19:00:07,461; 313
19:00:07,465; 255
19:00:07,469; 358
19:00:07,473; 298
19:00:07,477; 331
19:00:07,480; 307
19:00:07,484; 247
19:00:07,488; 299
19:00:07,492; 202
19:00:07,496; 193
19:00:07,500; 157
19:00:07,504; 110
19:00:07,508; 91
19:00:07,512; -9
19:00:07,516; -6
19:00:07,520; -44
19:00:07,523; -82
19:00:07,527; -94
19:00:07,531; -130
19:00:07,535; -126
19:00:07,539; -173
19:00:07,543; -169
19:00:07,547; -210
19:00:07,551; -195
19:00:07,555; -192
19:00:07,559; -244
19:00:07,563; -185
19:00:07,566; -228
19:00:07,570; -232
19:00:07,574; -214
19:00:07,578; -252
19:00:07,582; -214
19:00:07,586; -225
19:00:07,590; -210
19:00:07,594; -200
19:00:07,598; -198
19:00:07,602; -177
19:00:07,605; -205
19:00:07,609; -175
19:00:07,613; -178
19:00:07,617; -198
19:00:07,621; -162
19:00:07,625; -199
19:00:07,629; -157
19:00:07,633; -183
19:00:07,637; -172
19:00:07,641; -183
19:00:07,645; -194
19:00:07,648; -147
19:00:07,652; -226
19:00:07,656; -149
19:00:07,660; -195
19:00:07,664; -197
19:00:07,668; -176
19:00:07,672; -210
19:00:07,676; -174
19:00:07,680; -187
19:00:07,684; -211
19:00:07,688; -195
19:00:07,691; -221
19:00:07,695; -194
19:00:07,699; -222
19:00:07,703; -213
19:00:07,707; -222
19:00:07,711; -230
19:00:07,715; -232
19:00:07,719; -243
19:00:07,723; -236
19:00:07,727; -245
19:00:07,730; -233
19:00:07,734; -246
19:00:07,738; -249
19:00:07,742; -222
19:00:07,746; -253
19:00:07,750; -250
19:00:07,754; -267
19:00:07,758; -247
19:00:07,762; -254
19:00:07,766; -274
19:00:07,770; -249
19:00:07,773; -262
19:00:07,777; -256
19:00:07,781; -245
19:00:07,785; -265
19:00:07,789; -224
19:00:07,793; -262
19:00:07,797; -256
19:00:07,801; -237
19:00:07,805; -269
19:00:07,809; -214
19:00:07,812; -268
19:00:07,816; -230
19:00:07,820; -265
19:00:07,824; -277
19:00:07,828; -248
19:00:07,832; -266
19:00:07,836; -233
19:00:07,840; -235
19:00:07,844; -249
19:00:07,848; -206
19:00:07,852; -269
19:00:07,855; -235
19:00:07,859; -259
19:00:07,863; -223
19:00:07,867; -239
19:00:07,871; -264
19:00:07,875; -228
19:00:07,879; -277
19:00:07,883; -222
19:00:07,887; -263
19:00:07,891; -231
19:00:07,895; -218
19:00:07,898; -245
19:00:07,902; -226
19:00:07,906; -260
19:00:07,910; -224
19:00:07,914; -214
19:00:07,918; -247
19:00:07,922; -201
19:00:07,926; -235
19:00:07,930; -224
19:00:07,934; -237
19:00:07,938; -250
19:00:07,941; -204
19:00:07,945; -239
19:00:07,949; -168
19:00:07,953; -202
19:00:07,957; -150
19:00:07,961; -158
19:00:07,965; -164
19:00:07,969; -120
19:00:07,973; -127
19:00:07,977; -86
19:00:07,980; -100
19:00:07,984; -101
19:00:07,988; -50
19:00:07,992; -110
19:00:07,996; -67
19:00:08,000; -98
19:00:08,004; -111
19:00:08,008; -113
19:00:08,012; -156
19:00:08,016; -127
19:00:08,020; -143
19:00:08,023; -161
19:00:08,027; -170
19:00:08,031; -220
19:00:08,035; -203
19:00:08,039; -246
19:00:08,043; -241
19:00:08,047; -211
19:00:08,051; -242
19:00:08,055; -186
19:00:08,059; -232
19:00:08,062; -210
19:00:08,066; -231
19:00:08,070; -216
19:00:08,074; -226
19:00:08,078; -255
19:00:08,082; -224
19:00:08,086; -246
19:00:08,090; -216
19:00:08,094; -273
19:00:08,098; -218
19:00:08,102; -139
19:00:08,105; -29
19:00:08,109; 220
19:00:08,113; 594
19:00:08,117; 1226
19:00:08,121; 1578
19:00:08,125; 1938
19:00:08,129; 2198
19:00:08,133; 2074
19:00:08,137; 1773
19:00:08,141; 1019
19:00:08,145; 409
19:00:08,148; -148
19:00:08,152; -370
19:00:08,156; -413
19:00:08,160; -295
19:00:08,164; -85
19:00:08,168; 7
19:00:08,172; -151
19:00:08,176; -183
19:00:08,180; -199
19:00:08,184; -192
19:00:08,188; -163
19:00:08,191; -164
19:00:08,195; -165
19:00:08,199; -204
19:00:08,203; -218
19:00:08,207; -159
19:00:08,211; -172
19:00:08,215; -172
19:00:08,219; -210
19:00:08,223; -163
19:00:08,227; -159
19:00:08,230; -157
19:00:08,234; -138
19:00:08,238; -151
19:00:08,242; -154
19:00:08,246; -144
19:00:08,250; -134
19:00:08,254; -138
19:00:08,258; -134
19:00:08,262; -88
19:00:08,266; -133
19:00:08,270; -84
19:00:08,273; -95
19:00:08,277; -93
19:00:08,281; -65
19:00:08,285; -80
19:00:08,289; -25
19:00:08,293; -41
19:00:08,297; -27
19:00:08,301; -9
19:00:08,305; -7
19:00:08,309; 25
19:00:08,312; 11
19:00:08,316; 50
19:00:08,320; 75
19:00:08,324; 72
19:00:08,328; 125
19:00:08,332; 124
19:00:08,336; 156
19:00:08,340; 202
19:00:08,344; 222
19:00:08,348; 261
19:00:08,352; 284
19:00:08,355; 334
19:00:08,359; 330
19:00:08,363; 373
19:00:08,367; 406
19:00:08,371; 420
19:00:08,375; 475
19:00:08,379; 461
19:00:08,383; 498
19:00:08,387; 502
19:00:08,391; 496
19:00:08,395; 520
19:00:08,398; 487
19:00:08,402; 489
19:00:08,406; 430
19:00:08,410; 403
19:00:08,414; 380
19:00:08,418; 290
19:00:08,422; 281
19:00:08,426; 221
19:00:08,430; 200
19:00:08,434; 146
19:00:08,438; 91
19:00:08,441; 94
19:00:08,445; 30
19:00:08,449; 28
19:00:08,453; -12
19:00:08,457; -7
19:00:08,461; -24
19:00:08,465; -46
19:00:08,469; -27
19:00:08,473; -96
19:00:08,477; -80
19:00:08,480; -86
19:00:08,484; -120
19:00:08,488; -81
19:00:08,492; -134
19:00:08,496; -67
19:00:08,500; -61
19:00:08,504; -91
19:00:08,508; -57
19:00:08,512; -96
19:00:08,516; -50
19:00:08,520; -65
19:00:08,523; -93
19:00:08,527; -12
19:00:08,531; -77
19:00:08,535; -25
19:00:08,539; -48
19:00:08,543; -49
19:00:08,547; -37
19:00:08,551; -48
19:00:08,555; -34
19:00:08,559; -36
19:00:08,563; -32
19:00:08,566; -25
19:00:08,570; -45
19:00:08,574; -25
19:00:08,578; -47
19:00:08,582; -27
19:00:08,586; -44
19:00:08,590; -13
19:00:08,594; -43
19:00:08,598; -46
19:00:08,602; -60
19:00:08,605; -80
19:00:08,609; -45
19:00:08,613; -71
19:00:08,617; -75
19:00:08,621; -44
19:00:08,625; -93
19:00:08,629; -36
19:00:08,633; -76
19:00:08,637; -71
19:00:08,641; -57
19:00:08,645; -83
19:00:08,648; -56
19:00:08,652; -89
19:00:08,656; -51
19:00:08,660; -61
19:00:08,664; -63
19:00:08,668; -18
19:00:08,672; -25
19:00:08,676; 9
19:00:08,680; 27
19:00:08,684; 23
19:00:08,688; 27
19:00:08,691; 11
19:00:08,695; 51
19:00:08,699; 44
19:00:08,703; 55
19:00:08,707; 64
19:00:08,711; 43
19:00:08,715; 54
19:00:08,719; 24
19:00:08,723; 36
19:00:08,727; 34
19:00:08,730; 3
19:00:08,734; 1
19:00:08,738; -46
19:00:08,742; -65
19:00:08,746; -118
19:00:08,750; -104
19:00:08,754; -129
19:00:08,758; -144
19:00:08,762; -95
19:00:08,766; -146
19:00:08,770; -103
19:00:08,773; -117
19:00:08,777; -145
19:00:08,781; -109
19:00:08,785; -134
19:00:08,789; -120
19:00:08,793; -103
19:00:08,797; -148
19:00:08,801; -96
19:00:08,805; -149
19:00:08,809; -124
19:00:08,813; -152
19:00:08,816; -94
19:00:08,820; 9
19:00:08,824; 126
19:00:08,828; 451
19:00:08,832; 860
19:00:08,836; 1489
19:00:08,840; 1838
19:00:08,844; 2198
19:00:08,848; 2313
19:00:08,852; 2207
19:00:08,855; 1617
19:00:08,859; 968
19:00:08,863; 239
19:00:08,867; -159
19:00:08,871; -353
19:00:08,875; -315
19:00:08,879; -169
19:00:08,883; 14
19:00:08,887; 80
19:00:08,891; -84
19:00:08,895; -89
19:00:08,898; -190
19:00:08,902; -102
19:00:08,906; -119
19:00:08,910; -117
19:00:08,914; -147
19:00:08,918; -166
19:00:08,922; -108
19:00:08,926; -135
19:00:08,930; -113
19:00:08,934; -118
19:00:08,938; -126
19:00:08,941; -82
19:00:08,945; -91
19:00:08,949; -84
19:00:08,953; -108
19:00:08,957; -81
19:00:08,961; -69
19:00:08,965; -106
19:00:08,969; -40
19:00:08,973; -76
19:00:08,977; -51
19:00:08,980; -48
19:00:08,984; -84
19:00:08,988; -12
19:00:08,992; -45
19:00:08,996; -23
19:00:09,000; 3
19:00:09,004; -36
19:00:09,008; 10
19:00:09,012; -11
19:00:09,016; -1
19:00:09,020; -15
19:00:09,023; -27
19:00:09,027; 50
19:00:09,031; 22
19:00:09,035; 101
19:00:09,039; 119
19:00:09,043; 162
19:00:09,047; 146
19:00:09,051; 159
19:00:09,055; 217
19:00:09,059; 201
19:00:09,063; 283
19:00:09,066; 319
19:00:09,070; 319
19:00:09,074; 393
19:00:09,078; 363
19:00:09,082; 426
19:00:09,086; 426
19:00:09,090; 442
19:00:09,094; 483
19:00:09,098; 440
19:00:09,102; 494
19:00:09,105; 448
19:00:09,109; 478
19:00:09,113; 461
19:00:09,117; 411
19:00:09,121; 397
19:00:09,125; 325
19:00:09,129; 311
19:00:09,133; 227
19:00:09,137; 172
19:00:09,141; 156
19:00:09,145; 100
19:00:09,148; 68
19:00:09,152; 38
19:00:09,156; 1
19:00:09,160; 5
19:00:09,164; -49
19:00:09,168; -58
19:00:09,172; -110
19:00:09,176; -94
19:00:09,180; -118
19:00:09,184; -115
19:00:09,188; -109
19:00:09,191; -125
19:00:09,195; -113
19:00:09,199; -120
19:00:09,203; -150
19:00:09,207; -119
19:00:09,211; -149
19:00:09,215; -129
19:00:09,219; -144
19:00:09,223; -160
19:00:09,227; -141
19:00:09,230; -163
19:00:09,234; -104
19:00:09,238; -170
19:00:09,242; -138
19:00:09,246; -148
19:00:09,250; -157
19:00:09,254; -152
19:00:09,258; -130
19:00:09,262; -124
19:00:09,266; -127
19:00:09,270; -113
19:00:09,273; -150
19:00:09,277; -153
19:00:09,281; -137
19:00:09,285; -169
19:00:09,289; -132
19:00:09,293; -175
19:00:09,297; -144
19:00:09,301; -153
19:00:09,305; -204
19:00:09,309; -147
19:00:09,312; -185
19:00:09,316; -147
19:00:09,320; -168
19:00:09,324; -208
19:00:09,328; -182
19:00:09,332; -186
19:00:09,336; -172
19:00:09,340; -192
19:00:09,344; -191
19:00:09,348; -155
19:00:09,352; -202
19:00:09,355; -177
19:00:09,359; -153
19:00:09,363; -150
19:00:09,367; -91
19:00:09,371; -143
19:00:09,375; -109
19:00:09,379; -111
19:00:09,383; -126
19:00:09,387; -115
19:00:09,391; -144
19:00:09,395; -144
19:00:09,398; -192
19:00:09,402; -172
19:00:09,406; -201
19:00:09,410; -237
19:00:09,414; -220
19:00:09,418; -259
19:00:09,422; -312
19:00:09,426; -302
19:00:09,430; -313
19:00:09,434; -322
19:00:09,438; -333
19:00:09,441; -296
19:00:09,445; -361
19:00:09,449; -331
19:00:09,453; -379
19:00:09,457; -389
19:00:09,461; -358
19:00:09,465; -401
19:00:09,469; -355
19:00:09,473; -365
19:00:09,477; -363
19:00:09,480; -338
19:00:09,484; -425
19:00:09,488; -354
19:00:09,492; -387
19:00:09,496; -280
19:00:09,500; -129
19:00:09,504; 109
19:00:09,508; 516
19:00:09,512; 1086
19:00:09,516; 1629
19:00:09,520; 1849
19:00:09,523; 2073
19:00:09,527; 2113
19:00:09,531; 1575
19:00:09,535; 996
19:00:09,539; 267
19:00:09,543; -392
19:00:09,547; -618
19:00:09,551; -668
19:00:09,555; -578
19:00:09,559; -471
19:00:09,562; -282
19:00:09,566; -321
19:00:09,570; -440
19:00:09,574; -437
19:00:09,578; -435
19:00:09,582; -388
19:00:09,586; -426
19:00:09,590; -489
19:00:09,594; -483
19:00:09,598; -474
19:00:09,602; -423
19:00:09,605; -432
19:00:09,609; -450
19:00:09,613; -451
19:00:09,617; -484
19:00:09,621; -385
19:00:09,625; -461
19:00:09,629; -426
19:00:09,633; -432
19:00:09,637; -449
19:00:09,641; -409
19:00:09,645; -444
19:00:09,648; -434
19:00:09,652; -445
19:00:09,656; -428
19:00:09,660; -412
19:00:09,664; -436
19:00:09,668; -366
19:00:09,672; -440
19:00:09,676; -388
19:00:09,680; -402
19:00:09,684; -412
19:00:09,688; -365
19:00:09,691; -422
19:00:09,695; -326
19:00:09,699; -371
19:00:09,703; -377
19:00:09,707; -276
19:00:09,711; -330
19:00:09,715; -292
19:00:09,719; -285
19:00:09,723; -236
19:00:09,727; -208
19:00:09,730; -229
19:00:09,734; -164
19:00:09,738; -140
19:00:09,742; -118
19:00:09,746; -76
19:00:09,750; -101
19:00:09,754; -8
19:00:09,758; 0
19:00:09,762; 5
19:00:09,766; 19
19:00:09,770; 43
19:00:09,773; 51
19:00:09,777; 54
19:00:09,781; 48
19:00:09,785; 27
19:00:09,789; -10
19:00:09,793; -34
19:00:09,797; -116
19:00:09,801; -115
19:00:09,805; -202
19:00:09,809; -194
19:00:09,812; -227
19:00:09,816; -303
19:00:09,820; -325
19:00:09,824; -423
19:00:09,828; -416
19:00:09,832; -455
19:00:09,836; -491
19:00:09,840; -517
19:00:09,844; -528
19:00:09,848; -508
19:00:09,852; -560
19:00:09,855; -526
19:00:09,859; -528
19:00:09,863; -522
19:00:09,867; -531
19:00:09,871; -562
19:00:09,875; -564
19:00:09,879; -563
19:00:09,883; -580
19:00:09,887; -576
19:00:09,891; -610
19:00:09,895; -556
19:00:09,898; -575
19:00:09,902; -576
19:00:09,906; -565
19:00:09,910; -548
19:00:09,914; -535
19:00:09,918; -561
19:00:09,922; -545
19:00:09,926; -550
19:00:09,930; -587
19:00:09,934; -542
19:00:09,938; -590
19:00:09,941; -561
19:00:09,945; -542
19:00:09,949; -565
19:00:09,953; -565
19:00:09,957; -569
19:00:09,961; -550
19:00:09,965; -567
19:00:09,969; -559
19:00:09,973; -522
19:00:09,977; -559
19:00:09,980; -522
19:00:09,984; -576
19:00:09,988; -558
19:00:09,992; -563
19:00:09,996; -575
19:00:10,000; -558
19:00:10,004; -602
19:00:10,008; -566
19:00:10,012; -607
19:00:10,016; -624
19:00:10,020; -593
19:00:10,023; -618
19:00:10,027; -565
19:00:10,031; -591
19:00:10,035; -529
19:00:10,039; -559
19:00:10,043; -538
19:00:10,047; -516
19:00:10,051; -562
19:00:10,055; -506
19:00:10,059; -558
19:00:10,063; -545
19:00:10,066; -514
19:00:10,070; -582
19:00:10,074; -550
19:00:10,078; -576
19:00:10,082; -571
19:00:10,086; -583
19:00:10,090; -590
19:00:10,094; -590
19:00:10,098; -659
19:00:10,102; -646
19:00:10,105; -696
19:00:10,109; -728
19:00:10,113; -721
19:00:10,117; -746
19:00:10,121; -748
19:00:10,125; -753
19:00:10,129; -733
19:00:10,133; -771
19:00:10,137; -726
19:00:10,141; -757
19:00:10,145; -765
19:00:10,148; -757
19:00:10,152; -755
19:00:10,156; -750
19:00:10,160; -770
19:00:10,164; -771
19:00:10,168; -754
19:00:10,172; -810
19:00:10,176; -778
19:00:10,180; -712
19:00:10,184; -624
19:00:10,188; -386
19:00:10,191; -89
19:00:10,195; 414
19:00:10,199; 849
19:00:10,203; 1410
19:00:10,207; 1644
19:00:10,211; 1651
19:00:10,215; 1552
19:00:10,219; 1056
19:00:10,223; 239
19:00:10,227; -580
19:00:10,230; -887
19:00:10,234; -994
19:00:10,238; -1073
19:00:10,242; -894
19:00:10,246; -673
19:00:10,250; -630
19:00:10,254; -808
19:00:10,258; -852
19:00:10,262; -789
19:00:10,266; -773
19:00:10,270; -805
19:00:10,273; -752
19:00:10,277; -838
19:00:10,281; -784
19:00:10,285; -786
19:00:10,289; -783
19:00:10,293; -787
19:00:10,297; -833
19:00:10,301; -800
19:00:10,305; -799
19:00:10,309; -804
19:00:10,313; -767
19:00:10,316; -827
19:00:10,320; -805
19:00:10,324; -792
19:00:10,328; -786
19:00:10,332; -782
19:00:10,336; -782
19:00:10,340; -753
19:00:10,344; -780
19:00:10,348; -728
19:00:10,352; -755
19:00:10,355; -751
19:00:10,359; -739
19:00:10,363; -750
19:00:10,367; -722
19:00:10,371; -711
19:00:10,375; -680
19:00:10,379; -674
19:00:10,383; -683
19:00:10,387; -671
19:00:10,391; -656
19:00:10,395; -640
19:00:10,398; -647
19:00:10,402; -620
19:00:10,406; -573
19:00:10,410; -575
19:00:10,414; -496
19:00:10,418; -507
19:00:10,422; -471
19:00:10,426; -434
19:00:10,430; -445
19:00:10,434; -358
19:00:10,438; -388
19:00:10,441; -355
19:00:10,445; -307
19:00:10,449; -311
19:00:10,453; -261
19:00:10,457; -298
19:00:10,461; -225
19:00:10,465; -285
19:00:10,469; -300
19:00:10,473; -316
19:00:10,477; -350
19:00:10,480; -377
19:00:10,484; -453
19:00:10,488; -456
19:00:10,492; -558
19:00:10,496; -590
19:00:10,500; -620
19:00:10,504; -672
19:00:10,508; -653
19:00:10,512; -696
19:00:10,516; -740
19:00:10,520; -729
19:00:10,523; -793
19:00:10,527; -764
19:00:10,531; -833
19:00:10,535; -837
19:00:10,539; -818
19:00:10,543; -859
19:00:10,547; -843
19:00:10,551; -855
19:00:10,555; -826
19:00:10,559; -825
19:00:10,563; -868
19:00:10,566; -836
19:00:10,570; -913
19:00:10,574; -879
19:00:10,578; -905
19:00:10,582; -864
19:00:10,586; -848
19:00:10,590; -880
19:00:10,594; -859
19:00:10,598; -873
19:00:10,602; -881
19:00:10,605; -845
19:00:10,609; -860
19:00:10,613; -830
19:00:10,617; -848
19:00:10,621; -804
19:00:10,625; -857
19:00:10,629; -810
19:00:10,633; -786
19:00:10,637; -819
19:00:10,641; -805
19:00:10,645; -845
19:00:10,648; -802
19:00:10,652; -823
19:00:10,656; -855
19:00:10,660; -788
19:00:10,664; -865
19:00:10,668; -796
19:00:10,672; -833
19:00:10,676; -820
19:00:10,680; -844
19:00:10,684; -845
19:00:10,688; -851
19:00:10,691; -870
19:00:10,695; -857
19:00:10,699; -858
19:00:10,703; -896
19:00:10,707; -890
19:00:10,711; -881
19:00:10,715; -885
19:00:10,719; -895
19:00:10,723; -895
19:00:10,727; -871
19:00:10,730; -930
19:00:10,734; -890
19:00:10,738; -934
19:00:10,742; -912
19:00:10,746; -913
19:00:10,750; -946
19:00:10,754; -909
19:00:10,758; -931
19:00:10,762; -922
19:00:10,766; -937
19:00:10,770; -949
19:00:10,773; -922
19:00:10,777; -964
19:00:10,781; -924
19:00:10,785; -933
19:00:10,789; -926
19:00:10,793; -945
19:00:10,797; -973
19:00:10,801; -940
19:00:10,805; -975
19:00:10,809; -944
19:00:10,812; -933
19:00:10,816; -962
19:00:10,820; -941
19:00:10,824; -974
19:00:10,828; -973
19:00:10,832; -992
19:00:10,836; -972
19:00:10,840; -951
19:00:10,844; -998
19:00:10,848; -966
19:00:10,852; -1003
19:00:10,855; -981
19:00:10,859; -986
19:00:10,863; -1000
19:00:10,867; -949
19:00:10,871; -1016
19:00:10,875; -953
19:00:10,879; -989
19:00:10,883; -1011
19:00:10,887; -946
19:00:10,891; -1005
19:00:10,895; -976
19:00:10,898; -977
19:00:10,902; -1021
19:00:10,906; -950
19:00:10,910; -1031
19:00:10,914; -985
19:00:10,918; -1002
19:00:10,922; -999
19:00:10,926; -987
19:00:10,930; -1002
19:00:10,934; -962
19:00:10,938; -995
19:00:10,941; -994
19:00:10,945; -974
19:00:10,949; -1012
19:00:10,953; -997
19:00:10,957; -1011
19:00:10,961; -985
19:00:10,965; -1004
19:00:10,969; -978
19:00:10,973; -980
19:00:10,977; -984
19:00:10,980; -988
19:00:10,984; -1001
19:00:10,988; -1001
19:00:10,992; -1000
19:00:10,996; -991
19:00:11,000; -1008
19:00:11,004; -1010
19:00:11,008; -963
19:00:11,012; -994
19:00:11,016; -982
19:00:11,020; -957
19:00:11,023; -1014
19:00:11,027; -987
19:00:11,031; -1019
19:00:11,035; -985
19:00:11,039; -991
19:00:11,043; -980
19:00:11,047; -986
19:00:11,051; -992
19:00:11,055; -978
19:00:11,059; -1006
19:00:11,062; -967
19:00:11,066; -963
19:00:11,070; -1005
19:00:11,074; -955
19:00:11,078; -1014
19:00:11,082; -966
19:00:11,086; -972
19:00:11,090; -988
19:00:11,094; -962
19:00:11,098; -991
19:00:11,102; -985
19:00:11,105; -994
19:00:11,109; -1000
19:00:11,113; -953
19:00:11,117; -993
19:00:11,121; -923
19:00:11,125; -947
19:00:11,129; -926
19:00:11,133; -901
19:00:11,137; -921
19:00:11,141; -900
19:00:11,145; -893
19:00:11,148; -895
19:00:11,152; -861
19:00:11,156; -891
19:00:11,160; -848
19:00:11,164; -873
19:00:11,168; -895
19:00:11,172; -874
19:00:11,176; -904
19:00:11,180; -911
19:00:11,184; -928
19:00:11,188; -901
19:00:11,191; -916
19:00:11,195; -969
19:00:11,199; -952
19:00:11,203; -1012
19:00:11,207; -985
19:00:11,211; -1016
19:00:11,215; -987
19:00:11,219; -993
19:00:11,223; -1011
19:00:11,227; -963
19:00:11,230; -1028
19:00:11,234; -992
19:00:11,238; -985
19:00:11,242; -997
19:00:11,246; -988
19:00:11,250; -1026
19:00:11,254; -977
19:00:11,258; -1040
19:00:11,262; -993
19:00:11,266; -891
19:00:11,270; -821
19:00:11,273; -688
19:00:11,277; -223
19:00:11,281; 323
19:00:11,285; 784
19:00:11,289; 1230
19:00:11,293; 1551
19:00:11,297; 1410
19:00:11,301; 1178
19:00:11,305; 629
19:00:11,309; -167
19:00:11,312; -823
19:00:11,316; -984
19:00:11,320; -1120
19:00:11,324; -1132
19:00:11,328; -986
19:00:11,332; -742
19:00:11,336; -837
19:00:11,340; -952
19:00:11,344; -1002
19:00:11,348; -955
19:00:11,352; -968
19:00:11,355; -970
19:00:11,359; -1025
19:00:11,363; -1016
19:00:11,367; -975
19:00:11,371; -955
19:00:11,375; -938
19:00:11,379; -923
19:00:11,383; -991
19:00:11,387; -933
19:00:11,391; -983
19:00:11,395; -922
19:00:11,398; -966
19:00:11,402; -992
19:00:11,406; -925
19:00:11,410; -980
19:00:11,414; -921
19:00:11,418; -924
19:00:11,422; -954
19:00:11,426; -908
19:00:11,430; -948
19:00:11,434; -902
19:00:11,438; -923
19:00:11,441; -875
19:00:11,445; -863
19:00:11,449; -870
19:00:11,453; -849
19:00:11,457; -888
19:00:11,461; -819
19:00:11,465; -830
19:00:11,469; -814
19:00:11,473; -777
19:00:11,477; -790
19:00:11,480; -740
19:00:11,484; -772
19:00:11,488; -731
19:00:11,492; -687
19:00:11,496; -710
19:00:11,500; -628
19:00:11,504; -666
19:00:11,508; -606
19:00:11,512; -582
19:00:11,516; -591
19:00:11,520; -527
19:00:11,523; -535
19:00:11,527; -470
19:00:11,531; -456
19:00:11,535; -451
19:00:11,539; -405
19:00:11,543; -419
19:00:11,547; -379
19:00:11,551; -384
19:00:11,555; -359
19:00:11,559; -333
19:00:11,562; -357
19:00:11,566; -336
19:00:11,570; -388
19:00:11,574; -392
19:00:11,578; -454
19:00:11,582; -465
19:00:11,586; -500
19:00:11,590; -566
19:00:11,594; -540
19:00:11,598; -604
19:00:11,602; -624
19:00:11,605; -667
19:00:11,609; -720
19:00:11,613; -696
19:00:11,617; -783
19:00:11,621; -777
19:00:11,625; -790
19:00:11,629; -828
19:00:11,633; -798
19:00:11,637; -850
19:00:11,641; -854
19:00:11,645; -856
19:00:11,648; -852
19:00:11,652; -879
19:00:11,656; -859
19:00:11,660; -850
19:00:11,664; -866
19:00:11,668; -830
19:00:11,672; -862
19:00:11,676; -836
19:00:11,680; -830
19:00:11,684; -847
19:00:11,688; -793
19:00:11,691; -848
19:00:11,695; -827
19:00:11,699; -813
19:00:11,703; -841
19:00:11,707; -771
