Signal Type: ECG_Type
Start Time: 26/04/2023 19:18:17
Sample Rate: 256
Length: 77184
Unit: µV

Data:
19:18:17,000; 0
19:18:17,004; 0
19:18:17,008; 0
19:18:17,012; 0
19:18:17,016; 0
19:18:17,020; 0
19:18:17,023; 0
19:18:17,027; 0
19:18:17,031; 0
19:18:17,035; 0
19:18:17,039; 0
19:18:17,043; 0
19:18:17,047; 0
19:18:17,051; 0
19:18:17,055; 0
19:18:17,059; 0
19:18:17,062; 0
19:18:17,066; 0
19:18:17,070; 0
19:18:17,074; 0
19:18:17,078; 0
19:18:17,082; 0
19:18:17,086; 0
19:18:17,090; 0
19:18:17,094; 0
19:18:17,098; 0
19:18:17,102; 0
19:18:17,105; 0
19:18:17,109; 0
19:18:17,113; 0
19:18:17,117; 0
19:18:17,121; 0
19:18:17,125; 0
19:18:17,129; 0
19:18:17,133; 0
19:18:17,137; 0
19:18:17,141; 0
19:18:17,145; 0
19:18:17,148; 0
19:18:17,152; 0
19:18:17,156; 0
19:18:17,160; 0
19:18:17,164; 0
19:18:17,168; 0
19:18:17,172; 0
19:18:17,176; 0
19:18:17,180; 0
19:18:17,184; 0
19:18:17,188; 0
19:18:17,191; 0
19:18:17,195; 0
19:18:17,199; 0
19:18:17,203; 0
19:18:17,207; 0
19:18:17,211; 0
19:18:17,215; 0
19:18:17,219; 0
19:18:17,223; 0
19:18:17,227; 0
19:18:17,230; 0
19:18:17,234; 0
19:18:17,238; 0
19:18:17,242; 0
19:18:17,246; 0
19:18:17,250; 0
19:18:17,254; 0
19:18:17,258; 0
19:18:17,262; 0
19:18:17,266; 0
19:18:17,270; 0
19:18:17,273; 0
19:18:17,277; 0
19:18:17,281; 0
19:18:17,285; 0
19:18:17,289; 0
19:18:17,293; 0
19:18:17,297; 0
19:18:17,301; 0
19:18:17,305; 0
19:18:17,309; 0
19:18:17,312; 0
19:18:17,316; 0
19:18:17,320; 0
19:18:17,324; 0
19:18:17,328; 0
19:18:17,332; 0
19:18:17,336; 0
19:18:17,340; 0
19:18:17,344; 0
19:18:17,348; 0
19:18:17,352; 0
19:18:17,355; 0
19:18:17,359; 0
19:18:17,363; 0
19:18:17,367; 0
19:18:17,371; 0
19:18:17,375; 0
19:18:17,379; 0
19:18:17,383; 0
19:18:17,387; 0
19:18:17,391; 0
19:18:17,395; 0
19:18:17,398; 0
19:18:17,402; 0
19:18:17,406; 0
19:18:17,410; 0
19:18:17,414; 0
19:18:17,418; 0
19:18:17,422; 0
19:18:17,426; 0
19:18:17,430; 0
19:18:17,434; 0
19:18:17,438; 0
19:18:17,441; 0
19:18:17,445; 0
19:18:17,449; 0
19:18:17,453; 0
19:18:17,457; 0
19:18:17,461; 0
19:18:17,465; 0
19:18:17,469; 0
19:18:17,473; 0
19:18:17,477; 0
19:18:17,480; 0
19:18:17,484; 0
19:18:17,488; 0
19:18:17,492; 0
19:18:17,496; 0
19:18:17,500; -625
19:18:17,504; -548
19:18:17,508; -710
19:18:17,512; -833
19:18:17,516; -786
19:18:17,520; -639
19:18:17,523; -572
19:18:17,527; -604
19:18:17,531; -635
19:18:17,535; -631
19:18:17,539; -572
19:18:17,543; -561
19:18:17,547; -547
19:18:17,551; -546
19:18:17,555; -534
19:18:17,559; -505
19:18:17,563; -486
19:18:17,566; -469
19:18:17,570; -469
19:18:17,574; -487
19:18:17,578; -507
19:18:17,582; -517
19:18:17,586; -532
19:18:17,590; -568
19:18:17,594; -577
19:18:17,598; -613
19:18:17,602; -668
19:18:17,605; -709
19:18:17,609; -718
19:18:17,613; -771
19:18:17,617; -792
19:18:17,621; -791
19:18:17,625; -814
19:18:17,629; -836
19:18:17,633; -862
19:18:17,637; -863
19:18:17,641; -858
19:18:17,645; -875
19:18:17,648; -869
19:18:17,652; -868
19:18:17,656; -875
19:18:17,660; -860
19:18:17,664; -888
19:18:17,668; -863
19:18:17,672; -858
19:18:17,676; -869
19:18:17,680; -869
19:18:17,684; -851
19:18:17,688; -837
19:18:17,691; -873
19:18:17,695; -851
19:18:17,699; -850
19:18:17,703; -849
19:18:17,707; -859
19:18:17,711; -863
19:18:17,715; -867
19:18:17,719; -854
19:18:17,723; -872
19:18:17,727; -878
19:18:17,730; -874
19:18:17,734; -872
19:18:17,738; -878
19:18:17,742; -876
19:18:17,746; -896
19:18:17,750; -880
19:18:17,754; -889
19:18:17,758; -907
19:18:17,762; -888
19:18:17,766; -906
19:18:17,770; -912
19:18:17,773; -934
19:18:17,777; -919
19:18:17,781; -915
19:18:17,785; -923
19:18:17,789; -919
19:18:17,793; -914
19:18:17,797; -920
19:18:17,801; -912
19:18:17,805; -912
19:18:17,809; -896
19:18:17,813; -892
19:18:17,816; -871
19:18:17,820; -865
19:18:17,824; -871
19:18:17,828; -846
19:18:17,832; -809
19:18:17,836; -759
19:18:17,840; -718
19:18:17,844; -662
19:18:17,848; -639
19:18:17,852; -628
19:18:17,855; -637
19:18:17,859; -664
19:18:17,863; -677
19:18:17,867; -671
19:18:17,871; -683
19:18:17,875; -705
19:18:17,879; -711
19:18:17,883; -727
19:18:17,887; -747
19:18:17,891; -770
19:18:17,895; -766
19:18:17,898; -798
19:18:17,902; -811
19:18:17,906; -801
19:18:17,910; -821
19:18:17,914; -817
19:18:17,918; -814
19:18:17,922; -808
19:18:17,926; -788
19:18:17,930; -794
19:18:17,934; -825
19:18:17,938; -810
19:18:17,941; -806
19:18:17,945; -806
19:18:17,949; -821
19:18:17,953; -794
19:18:17,957; -802
19:18:17,961; -843
19:18:17,965; -841
19:18:17,969; -794
19:18:17,973; -717
19:18:17,977; -531
19:18:17,980; -247
19:18:17,984; 298
19:18:17,988; 846
19:18:17,992; 1303
19:18:17,996; 1677
19:18:18,000; 1747
19:18:18,004; 1612
19:18:18,008; 850
19:18:18,012; 137
19:18:18,016; -439
19:18:18,020; -929
19:18:18,023; -1039
19:18:18,027; -874
19:18:18,031; -835
19:18:18,035; -621
19:18:18,039; -677
19:18:18,043; -710
19:18:18,047; -816
19:18:18,051; -818
19:18:18,055; -731
19:18:18,059; -775
19:18:18,063; -771
19:18:18,066; -765
19:18:18,070; -777
19:18:18,074; -767
19:18:18,078; -744
19:18:18,082; -789
19:18:18,086; -782
19:18:18,090; -763
19:18:18,094; -737
19:18:18,098; -742
19:18:18,102; -750
19:18:18,105; -727
19:18:18,109; -749
19:18:18,113; -731
19:18:18,117; -730
19:18:18,121; -747
19:18:18,125; -721
19:18:18,129; -730
19:18:18,133; -700
19:18:18,137; -721
19:18:18,141; -693
19:18:18,145; -685
19:18:18,148; -675
19:18:18,152; -675
19:18:18,156; -652
19:18:18,160; -657
19:18:18,164; -661
19:18:18,168; -642
19:18:18,172; -625
19:18:18,176; -599
19:18:18,180; -592
19:18:18,184; -561
19:18:18,188; -547
19:18:18,191; -559
19:18:18,195; -539
19:18:18,199; -505
19:18:18,203; -484
19:18:18,207; -452
19:18:18,211; -432
19:18:18,215; -409
19:18:18,219; -393
19:18:18,223; -378
19:18:18,227; -351
19:18:18,230; -326
19:18:18,234; -240
19:18:18,238; -159
19:18:18,242; -121
19:18:18,246; -42
19:18:18,250; 2
19:18:18,254; 16
19:18:18,258; -4
19:18:18,262; 21
19:18:18,266; 21
19:18:18,270; 6
19:18:18,273; -21
19:18:18,277; -32
19:18:18,281; -63
19:18:18,285; -105
19:18:18,289; -144
19:18:18,293; -172
19:18:18,297; -199
19:18:18,301; -225
19:18:18,305; -243
19:18:18,309; -268
19:18:18,312; -284
19:18:18,316; -296
19:18:18,320; -323
19:18:18,324; -318
19:18:18,328; -338
19:18:18,332; -344
19:18:18,336; -349
19:18:18,340; -352
19:18:18,344; -365
19:18:18,348; -351
19:18:18,352; -341
19:18:18,355; -343
19:18:18,359; -340
19:18:18,363; -335
19:18:18,367; -319
19:18:18,371; -335
19:18:18,375; -320
19:18:18,379; -322
19:18:18,383; -307
19:18:18,387; -315
19:18:18,391; -304
19:18:18,395; -312
19:18:18,398; -315
19:18:18,402; -321
19:18:18,406; -317
19:18:18,410; -331
19:18:18,414; -317
19:18:18,418; -323
19:18:18,422; -338
19:18:18,426; -330
19:18:18,430; -327
19:18:18,434; -321
19:18:18,438; -321
19:18:18,441; -335
19:18:18,445; -339
19:18:18,449; -359
19:18:18,453; -356
19:18:18,457; -347
19:18:18,461; -332
19:18:18,465; -316
19:18:18,469; -291
19:18:18,473; -283
19:18:18,477; -278
19:18:18,480; -237
19:18:18,484; -262
19:18:18,488; -221
19:18:18,492; -240
19:18:18,496; -218
19:18:18,500; -228
19:18:18,504; -263
19:18:18,508; -250
19:18:18,512; -281
19:18:18,516; -303
19:18:18,520; -298
19:18:18,523; -317
19:18:18,527; -331
19:18:18,531; -377
19:18:18,535; -399
19:18:18,539; -432
19:18:18,543; -432
19:18:18,547; -436
19:18:18,551; -428
19:18:18,555; -437
19:18:18,559; -442
19:18:18,562; -451
19:18:18,566; -464
19:18:18,570; -465
19:18:18,574; -458
19:18:18,578; -457
19:18:18,582; -451
19:18:18,586; -439
19:18:18,590; -448
19:18:18,594; -456
19:18:18,598; -439
19:18:18,602; -453
19:18:18,605; -496
19:18:18,609; -483
19:18:18,613; -446
19:18:18,617; -371
19:18:18,621; -203
19:18:18,625; 162
19:18:18,629; 941
19:18:18,633; 1522
19:18:18,637; 2030
19:18:18,641; 2368
19:18:18,645; 2382
19:18:18,648; 2092
19:18:18,652; 1116
19:18:18,656; 293
19:18:18,660; -169
19:18:18,664; -609
19:18:18,668; -723
19:18:18,672; -579
19:18:18,676; -317
19:18:18,680; -300
19:18:18,684; -280
19:18:18,688; -444
19:18:18,691; -500
19:18:18,695; -400
19:18:18,699; -432
19:18:18,703; -402
19:18:18,707; -467
19:18:18,711; -429
19:18:18,715; -451
19:18:18,719; -411
19:18:18,723; -444
19:18:18,727; -425
19:18:18,730; -412
19:18:18,734; -426
19:18:18,738; -395
19:18:18,742; -383
19:18:18,746; -403
19:18:18,750; -411
19:18:18,754; -396
19:18:18,758; -412
19:18:18,762; -422
19:18:18,766; -413
19:18:18,770; -393
19:18:18,773; -389
19:18:18,777; -387
19:18:18,781; -384
19:18:18,785; -350
19:18:18,789; -340
19:18:18,793; -340
19:18:18,797; -317
19:18:18,801; -307
19:18:18,805; -306
19:18:18,809; -311
19:18:18,812; -321
19:18:18,816; -294
19:18:18,820; -265
19:18:18,824; -248
19:18:18,828; -228
19:18:18,832; -187
19:18:18,836; -193
19:18:18,840; -167
19:18:18,844; -165
19:18:18,848; -126
19:18:18,852; -95
19:18:18,855; -88
19:18:18,859; -59
19:18:18,863; -40
19:18:18,867; -7
19:18:18,871; -2
19:18:18,875; 33
19:18:18,879; 40
19:18:18,883; 60
19:18:18,887; 75
19:18:18,891; 105
19:18:18,895; 113
19:18:18,898; 98
19:18:18,902; 90
19:18:18,906; 57
19:18:18,910; 12
19:18:18,914; -18
19:18:18,918; -32
19:18:18,922; -42
19:18:18,926; -88
19:18:18,930; -153
19:18:18,934; -175
19:18:18,938; -232
19:18:18,941; -285
19:18:18,945; -274
19:18:18,949; -279
19:18:18,953; -300
19:18:18,957; -319
19:18:18,961; -344
19:18:18,965; -369
19:18:18,969; -376
19:18:18,973; -372
19:18:18,977; -372
19:18:18,980; -363
19:18:18,984; -370
19:18:18,988; -386
19:18:18,992; -380
19:18:18,996; -383
19:18:19,000; -366
19:18:19,004; -373
19:18:19,008; -355
19:18:19,012; -360
19:18:19,016; -371
19:18:19,020; -339
19:18:19,023; -335
19:18:19,027; -343
19:18:19,031; -319
19:18:19,035; -349
19:18:19,039; -328
19:18:19,043; -348
19:18:19,047; -325
19:18:19,051; -327
19:18:19,055; -322
19:18:19,059; -336
19:18:19,062; -329
19:18:19,066; -355
19:18:19,070; -348
19:18:19,074; -354
19:18:19,078; -347
19:18:19,082; -369
19:18:19,086; -366
19:18:19,090; -375
19:18:19,094; -362
19:18:19,098; -380
19:18:19,102; -398
19:18:19,105; -357
19:18:19,109; -344
19:18:19,113; -346
19:18:19,117; -322
19:18:19,121; -325
19:18:19,125; -324
19:18:19,129; -300
19:18:19,133; -310
19:18:19,137; -287
19:18:19,141; -255
19:18:19,145; -291
19:18:19,148; -305
19:18:19,152; -345
19:18:19,156; -361
19:18:19,160; -309
19:18:19,164; -337
19:18:19,168; -360
19:18:19,172; -370
19:18:19,176; -380
19:18:19,180; -441
19:18:19,184; -502
19:18:19,188; -490
19:18:19,191; -482
19:18:19,195; -507
19:18:19,199; -512
19:18:19,203; -500
19:18:19,207; -488
19:18:19,211; -509
19:18:19,215; -483
19:18:19,219; -494
19:18:19,223; -503
19:18:19,227; -520
19:18:19,230; -522
19:18:19,234; -498
19:18:19,238; -493
19:18:19,242; -515
19:18:19,246; -495
19:18:19,250; -516
19:18:19,254; -536
19:18:19,258; -486
19:18:19,262; -380
19:18:19,266; -153
19:18:19,270; 330
19:18:19,273; 1229
19:18:19,277; 1654
19:18:19,281; 2268
19:18:19,285; 2571
19:18:19,289; 2511
19:18:19,293; 2034
19:18:19,297; 1177
19:18:19,301; 394
19:18:19,305; -284
19:18:19,309; -490
19:18:19,313; -639
19:18:19,316; -627
19:18:19,320; -326
19:18:19,324; -346
19:18:19,328; -389
19:18:19,332; -548
19:18:19,336; -565
19:18:19,340; -449
19:18:19,344; -486
19:18:19,348; -480
19:18:19,352; -545
19:18:19,355; -501
19:18:19,359; -511
19:18:19,363; -428
19:18:19,367; -471
19:18:19,371; -482
19:18:19,375; -487
19:18:19,379; -474
19:18:19,383; -477
19:18:19,387; -441
19:18:19,391; -492
19:18:19,395; -430
19:18:19,398; -435
19:18:19,402; -443
19:18:19,406; -465
19:18:19,410; -409
19:18:19,414; -420
19:18:19,418; -390
19:18:19,422; -444
19:18:19,426; -381
19:18:19,430; -400
19:18:19,434; -383
19:18:19,438; -384
19:18:19,441; -352
19:18:19,445; -333
19:18:19,449; -346
19:18:19,453; -305
19:18:19,457; -303
19:18:19,461; -295
19:18:19,465; -274
19:18:19,469; -227
19:18:19,473; -223
19:18:19,477; -226
19:18:19,480; -173
19:18:19,484; -150
19:18:19,488; -115
19:18:19,492; -75
19:18:19,496; -47
19:18:19,500; -10
19:18:19,504; 37
19:18:19,508; 48
19:18:19,512; 29
19:18:19,516; 113
19:18:19,520; 108
19:18:19,523; 203
19:18:19,527; 155
19:18:19,531; 211
19:18:19,535; 209
19:18:19,539; 181
19:18:19,543; 133
19:18:19,547; 124
19:18:19,551; 102
19:18:19,555; 65
19:18:19,559; 53
19:18:19,563; -43
19:18:19,566; -74
19:18:19,570; -138
19:18:19,574; -161
19:18:19,578; -185
19:18:19,582; -239
19:18:19,586; -220
19:18:19,590; -287
19:18:19,594; -285
19:18:19,598; -321
19:18:19,602; -390
19:18:19,605; -334
19:18:19,609; -332
19:18:19,613; -391
19:18:19,617; -399
19:18:19,621; -339
19:18:19,625; -395
19:18:19,629; -387
19:18:19,633; -367
19:18:19,637; -353
19:18:19,641; -402
19:18:19,645; -358
19:18:19,648; -338
19:18:19,652; -395
19:18:19,656; -385
19:18:19,660; -336
19:18:19,664; -363
19:18:19,668; -362
19:18:19,672; -345
19:18:19,676; -324
19:18:19,680; -352
19:18:19,684; -305
19:18:19,688; -362
19:18:19,691; -316
19:18:19,695; -248
19:18:19,699; -350
19:18:19,703; -316
19:18:19,707; -297
19:18:19,711; -309
19:18:19,715; -311
19:18:19,719; -296
19:18:19,723; -313
19:18:19,727; -304
19:18:19,730; -306
19:18:19,734; -288
19:18:19,738; -255
19:18:19,742; -218
19:18:19,746; -182
19:18:19,750; -193
19:18:19,754; -204
19:18:19,758; -172
19:18:19,762; -134
19:18:19,766; -139
19:18:19,770; -79
19:18:19,773; -125
19:18:19,777; -114
19:18:19,781; -141
19:18:19,785; -201
19:18:19,789; -207
19:18:19,793; -196
19:18:19,797; -242
19:18:19,801; -269
19:18:19,805; -285
19:18:19,809; -319
19:18:19,812; -383
19:18:19,816; -380
19:18:19,820; -399
19:18:19,824; -435
19:18:19,828; -430
19:18:19,832; -423
19:18:19,836; -435
19:18:19,840; -444
19:18:19,844; -409
19:18:19,848; -419
19:18:19,852; -472
19:18:19,855; -425
19:18:19,859; -449
19:18:19,863; -443
19:18:19,867; -451
19:18:19,871; -430
19:18:19,875; -438
19:18:19,879; -454
19:18:19,883; -476
19:18:19,887; -457
19:18:19,891; -410
19:18:19,895; -292
19:18:19,898; -39
19:18:19,902; 493
19:18:19,906; 1185
19:18:19,910; 1741
19:18:19,914; 2212
19:18:19,918; 2323
19:18:19,922; 2172
19:18:19,926; 1650
19:18:19,930; 1044
19:18:19,934; 213
19:18:19,938; -350
19:18:19,941; -445
19:18:19,945; -605
19:18:19,949; -524
19:18:19,953; -276
19:18:19,957; -224
19:18:19,961; -302
19:18:19,965; -352
19:18:19,969; -465
19:18:19,973; -456
19:18:19,977; -357
19:18:19,980; -342
19:18:19,984; -414
19:18:19,988; -379
19:18:19,992; -390
19:18:19,996; -396
19:18:20,000; -424
19:18:20,004; -425
19:18:20,008; -389
19:18:20,012; -401
19:18:20,016; -352
19:18:20,020; -330
19:18:20,023; -356
19:18:20,027; -330
19:18:20,031; -363
19:18:20,035; -337
19:18:20,039; -344
19:18:20,043; -329
19:18:20,047; -319
19:18:20,051; -308
19:18:20,055; -309
19:18:20,059; -284
19:18:20,062; -283
19:18:20,066; -304
19:18:20,070; -253
19:18:20,074; -268
19:18:20,078; -241
19:18:20,082; -230
19:18:20,086; -214
19:18:20,090; -186
19:18:20,094; -161
19:18:20,098; -165
19:18:20,102; -130
19:18:20,105; -124
19:18:20,109; -87
19:18:20,113; -87
19:18:20,117; -50
19:18:20,121; 5
19:18:20,125; 13
19:18:20,129; 50
19:18:20,133; 82
19:18:20,137; 100
19:18:20,141; 126
19:18:20,145; 148
19:18:20,148; 196
19:18:20,152; 198
19:18:20,156; 265
19:18:20,160; 271
19:18:20,164; 265
19:18:20,168; 272
19:18:20,172; 233
19:18:20,176; 223
19:18:20,180; 200
19:18:20,184; 168
19:18:20,188; 122
19:18:20,191; 63
19:18:20,195; 35
19:18:20,199; -26
19:18:20,203; -61
19:18:20,207; -71
19:18:20,211; -121
19:18:20,215; -162
19:18:20,219; -177
19:18:20,223; -208
19:18:20,227; -223
19:18:20,230; -236
19:18:20,234; -228
19:18:20,238; -246
19:18:20,242; -261
19:18:20,246; -245
19:18:20,250; -253
19:18:20,254; -238
19:18:20,258; -270
19:18:20,262; -276
19:18:20,266; -240
19:18:20,270; -249
19:18:20,273; -274
19:18:20,277; -251
19:18:20,281; -237
19:18:20,285; -262
19:18:20,289; -283
19:18:20,293; -234
19:18:20,297; -249
19:18:20,301; -254
19:18:20,305; -230
19:18:20,309; -235
19:18:20,312; -219
19:18:20,316; -231
19:18:20,320; -224
19:18:20,324; -247
19:18:20,328; -217
19:18:20,332; -203
19:18:20,336; -233
19:18:20,340; -217
19:18:20,344; -237
19:18:20,348; -224
19:18:20,352; -239
19:18:20,355; -221
19:18:20,359; -222
19:18:20,363; -215
19:18:20,367; -240
19:18:20,371; -248
19:18:20,375; -267
19:18:20,379; -229
19:18:20,383; -245
19:18:20,387; -266
19:18:20,391; -262
19:18:20,395; -279
19:18:20,398; -288
19:18:20,402; -294
19:18:20,406; -290
19:18:20,410; -294
19:18:20,414; -290
19:18:20,418; -289
19:18:20,422; -280
19:18:20,426; -309
19:18:20,430; -287
19:18:20,434; -290
19:18:20,438; -321
19:18:20,441; -313
19:18:20,445; -296
19:18:20,449; -344
19:18:20,453; -324
19:18:20,457; -328
19:18:20,461; -348
19:18:20,465; -333
19:18:20,469; -313
19:18:20,473; -324
19:18:20,477; -340
19:18:20,480; -332
19:18:20,484; -340
19:18:20,488; -350
19:18:20,492; -332
19:18:20,496; -350
19:18:20,500; -362
19:18:20,504; -325
19:18:20,508; -358
19:18:20,512; -352
19:18:20,516; -335
19:18:20,520; -348
19:18:20,523; -347
19:18:20,527; -350
19:18:20,531; -351
19:18:20,535; -345
19:18:20,539; -347
19:18:20,543; -359
19:18:20,547; -359
19:18:20,551; -365
19:18:20,555; -382
19:18:20,559; -367
19:18:20,562; -347
19:18:20,566; -350
19:18:20,570; -338
19:18:20,574; -365
19:18:20,578; -347
19:18:20,582; -364
19:18:20,586; -377
19:18:20,590; -367
19:18:20,594; -346
19:18:20,598; -367
19:18:20,602; -372
19:18:20,605; -371
19:18:20,609; -378
19:18:20,613; -371
19:18:20,617; -366
19:18:20,621; -358
19:18:20,625; -352
19:18:20,629; -356
19:18:20,633; -345
19:18:20,637; -364
19:18:20,641; -356
19:18:20,645; -344
19:18:20,648; -360
19:18:20,652; -370
19:18:20,656; -344
19:18:20,660; -381
19:18:20,664; -363
19:18:20,668; -373
19:18:20,672; -362
19:18:20,676; -352
19:18:20,680; -371
19:18:20,684; -353
19:18:20,688; -367
19:18:20,691; -373
19:18:20,695; -362
19:18:20,699; -360
19:18:20,703; -357
19:18:20,707; -357
19:18:20,711; -350
19:18:20,715; -363
19:18:20,719; -352
19:18:20,723; -370
19:18:20,727; -371
19:18:20,730; -375
19:18:20,734; -375
19:18:20,738; -371
19:18:20,742; -352
19:18:20,746; -357
19:18:20,750; -367
19:18:20,754; -358
19:18:20,758; -366
19:18:20,762; -364
19:18:20,766; -342
19:18:20,770; -362
19:18:20,773; -355
19:18:20,777; -369
19:18:20,781; -390
19:18:20,785; -367
19:18:20,789; -369
19:18:20,793; -357
19:18:20,797; -344
19:18:20,801; -351
19:18:20,805; -340
19:18:20,809; -328
19:18:20,813; -298
19:18:20,816; -294
19:18:20,820; -285
19:18:20,824; -278
19:18:20,828; -268
19:18:20,832; -272
19:18:20,836; -244
19:18:20,840; -232
19:18:20,844; -224
19:18:20,848; -249
19:18:20,852; -259
19:18:20,855; -285
19:18:20,859; -291
19:18:20,863; -294
19:18:20,867; -292
19:18:20,871; -295
19:18:20,875; -295
19:18:20,879; -322
19:18:20,883; -328
19:18:20,887; -348
19:18:20,891; -366
19:18:20,895; -363
19:18:20,898; -389
19:18:20,902; -391
19:18:20,906; -389
19:18:20,910; -366
19:18:20,914; -399
19:18:20,918; -403
19:18:20,922; -382
19:18:20,926; -389
19:18:20,930; -393
19:18:20,934; -374
19:18:20,938; -378
19:18:20,941; -384
19:18:20,945; -426
19:18:20,949; -418
19:18:20,953; -382
19:18:20,957; -297
19:18:20,961; -124
19:18:20,965; 237
19:18:20,969; 1010
19:18:20,973; 1591
19:18:20,977; 2102
19:18:20,980; 2442
19:18:20,984; 2455
19:18:20,988; 2163
19:18:20,992; 1456
19:18:20,996; 542
19:18:21,000; -107
19:18:21,004; -261
19:18:21,008; -499
19:18:21,012; -578
19:18:21,016; -228
19:18:21,020; -201
19:18:21,023; -214
19:18:21,027; -419
19:18:21,031; -360
19:18:21,035; -344
19:18:21,039; -330
19:18:21,043; -310
19:18:21,047; -344
19:18:21,051; -394
19:18:21,055; -370
19:18:21,059; -366
19:18:21,063; -366
19:18:21,066; -438
19:18:21,070; -415
19:18:21,074; -374
19:18:21,078; -376
19:18:21,082; -356
19:18:21,086; -357
19:18:21,090; -378
19:18:21,094; -353
19:18:21,098; -358
19:18:21,102; -327
19:18:21,105; -330
19:18:21,109; -351
19:18:21,113; -329
19:18:21,117; -325
19:18:21,121; -353
19:18:21,125; -335
19:18:21,129; -311
19:18:21,133; -324
19:18:21,137; -308
19:18:21,141; -296
19:18:21,145; -293
19:18:21,148; -285
19:18:21,152; -276
19:18:21,156; -260
19:18:21,160; -253
19:18:21,164; -237
19:18:21,168; -215
19:18:21,172; -194
19:18:21,176; -210
19:18:21,180; -188
19:18:21,184; -152
19:18:21,188; -146
19:18:21,191; -127
19:18:21,195; -98
19:18:21,199; -87
19:18:21,203; -46
19:18:21,207; -26
19:18:21,211; -20
19:18:21,215; 38
19:18:21,219; 25
19:18:21,223; 51
19:18:21,227; 75
19:18:21,230; 93
19:18:21,234; 102
19:18:21,238; 115
19:18:21,242; 141
19:18:21,246; 142
19:18:21,250; 133
19:18:21,254; 154
19:18:21,258; 138
19:18:21,262; 106
19:18:21,266; 103
19:18:21,270; 57
19:18:21,273; 19
19:18:21,277; -6
19:18:21,281; -29
19:18:21,285; -62
19:18:21,289; -123
19:18:21,293; -142
19:18:21,297; -150
19:18:21,301; -194
19:18:21,305; -224
19:18:21,309; -235
19:18:21,312; -242
19:18:21,316; -265
19:18:21,320; -301
19:18:21,324; -305
19:18:21,328; -304
19:18:21,332; -312
19:18:21,336; -315
19:18:21,340; -309
19:18:21,344; -320
19:18:21,348; -313
19:18:21,352; -318
19:18:21,355; -320
19:18:21,359; -323
19:18:21,363; -320
19:18:21,367; -312
19:18:21,371; -274
19:18:21,375; -350
19:18:21,379; -309
19:18:21,383; -319
19:18:21,387; -316
19:18:21,391; -344
19:18:21,395; -322
19:18:21,398; -335
19:18:21,402; -330
19:18:21,406; -348
19:18:21,410; -351
19:18:21,414; -346
19:18:21,418; -342
19:18:21,422; -358
19:18:21,426; -353
19:18:21,430; -388
19:18:21,434; -366
19:18:21,438; -393
19:18:21,441; -368
19:18:21,445; -423
19:18:21,449; -408
19:18:21,453; -409
19:18:21,457; -433
19:18:21,461; -439
19:18:21,465; -429
19:18:21,469; -437
19:18:21,473; -444
19:18:21,477; -428
19:18:21,480; -451
19:18:21,484; -470
19:18:21,488; -459
19:18:21,492; -459
19:18:21,496; -481
19:18:21,500; -481
19:18:21,504; -469
19:18:21,508; -480
19:18:21,512; -498
19:18:21,516; -493
19:18:21,520; -490
19:18:21,523; -490
19:18:21,527; -502
19:18:21,531; -500
19:18:21,535; -504
19:18:21,539; -509
19:18:21,543; -506
19:18:21,547; -497
19:18:21,551; -499
19:18:21,555; -496
19:18:21,559; -509
19:18:21,562; -506
19:18:21,566; -502
19:18:21,570; -509
19:18:21,574; -522
19:18:21,578; -516
19:18:21,582; -499
19:18:21,586; -514
19:18:21,590; -509
19:18:21,594; -528
19:18:21,598; -504
19:18:21,602; -523
19:18:21,605; -541
19:18:21,609; -527
19:18:21,613; -525
19:18:21,617; -532
19:18:21,621; -526
19:18:21,625; -530
19:18:21,629; -525
19:18:21,633; -528
19:18:21,637; -538
19:18:21,641; -548
19:18:21,645; -547
19:18:21,648; -532
19:18:21,652; -537
19:18:21,656; -532
19:18:21,660; -538
19:18:21,664; -538
19:18:21,668; -553
19:18:21,672; -551
19:18:21,676; -539
19:18:21,680; -532
19:18:21,684; -521
19:18:21,688; -547
19:18:21,691; -547
19:18:21,695; -544
19:18:21,699; -560
19:18:21,703; -563
19:18:21,707; -552
19:18:21,711; -542
19:18:21,715; -556
19:18:21,719; -561
19:18:21,723; -555
19:18:21,727; -556
19:18:21,730; -566
19:18:21,734; -565
19:18:21,738; -550
19:18:21,742; -555
19:18:21,746; -559
19:18:21,750; -557
19:18:21,754; -563
19:18:21,758; -562
19:18:21,762; -551
19:18:21,766; -547
19:18:21,770; -553
19:18:21,773; -542
19:18:21,777; -524
19:18:21,781; -529
19:18:21,785; -521
19:18:21,789; -517
19:18:21,793; -478
19:18:21,797; -485
19:18:21,801; -458
19:18:21,805; -427
19:18:21,809; -436
19:18:21,812; -446
19:18:21,816; -436
19:18:21,820; -474
19:18:21,824; -507
19:18:21,828; -495
19:18:21,832; -503
19:18:21,836; -522
19:18:21,840; -507
19:18:21,844; -525
19:18:21,848; -551
19:18:21,852; -569
19:18:21,855; -581
19:18:21,859; -620
19:18:21,863; -602
19:18:21,867; -599
19:18:21,871; -600
19:18:21,875; -611
19:18:21,879; -599
19:18:21,883; -596
19:18:21,887; -608
19:18:21,891; -602
19:18:21,895; -608
19:18:21,898; -602
19:18:21,902; -616
19:18:21,906; -603
19:18:21,910; -621
19:18:21,914; -632
19:18:21,918; -582
19:18:21,922; -506
19:18:21,926; -326
19:18:21,930; -15
19:18:21,934; 457
19:18:21,938; 911
19:18:21,941; 1469
19:18:21,945; 1873
19:18:21,949; 1931
19:18:21,953; 1893
19:18:21,957; 1375
19:18:21,961; 561
19:18:21,965; -253
19:18:21,969; -543
19:18:21,973; -889
19:18:21,977; -854
19:18:21,980; -675
19:18:21,984; -508
19:18:21,988; -450
19:18:21,992; -552
19:18:21,996; -603
19:18:22,000; -542
19:18:22,004; -588
19:18:22,008; -551
19:18:22,012; -593
19:18:22,016; -614
19:18:22,020; -584
19:18:22,023; -577
19:18:22,027; -561
19:18:22,031; -566
19:18:22,035; -599
19:18:22,039; -581
19:18:22,043; -570
19:18:22,047; -602
19:18:22,051; -562
19:18:22,055; -573
19:18:22,059; -561
19:18:22,062; -559
19:18:22,066; -583
19:18:22,070; -572
19:18:22,074; -547
19:18:22,078; -559
19:18:22,082; -565
19:18:22,086; -545
19:18:22,090; -537
19:18:22,094; -536
19:18:22,098; -538
19:18:22,102; -507
19:18:22,105; -521
19:18:22,109; -518
19:18:22,113; -504
19:18:22,117; -496
19:18:22,121; -490
19:18:22,125; -477
19:18:22,129; -458
19:18:22,133; -450
19:18:22,137; -432
19:18:22,141; -437
19:18:22,145; -417
19:18:22,148; -399
19:18:22,152; -383
19:18:22,156; -371
19:18:22,160; -346
19:18:22,164; -315
19:18:22,168; -290
19:18:22,172; -291
19:18:22,176; -260
19:18:22,180; -240
19:18:22,184; -229
19:18:22,188; -214
19:18:22,191; -199
19:18:22,195; -170
19:18:22,199; -147
19:18:22,203; -151
19:18:22,207; -127
19:18:22,211; -119
19:18:22,215; -119
19:18:22,219; -130
19:18:22,223; -139
19:18:22,227; -179
19:18:22,230; -178
19:18:22,234; -236
19:18:22,238; -275
19:18:22,242; -312
19:18:22,246; -326
19:18:22,250; -368
19:18:22,254; -406
19:18:22,258; -443
19:18:22,262; -453
19:18:22,266; -468
19:18:22,270; -522
19:18:22,273; -513
19:18:22,277; -523
19:18:22,281; -557
19:18:22,285; -562
19:18:22,289; -571
19:18:22,293; -584
19:18:22,297; -560
19:18:22,301; -576
19:18:22,305; -568
19:18:22,309; -567
19:18:22,313; -580
19:18:22,316; -571
19:18:22,320; -572
19:18:22,324; -556
19:18:22,328; -555
19:18:22,332; -554
19:18:22,336; -548
19:18:22,340; -573
19:18:22,344; -553
19:18:22,348; -562
19:18:22,352; -550
19:18:22,355; -559
19:18:22,359; -553
19:18:22,363; -558
19:18:22,367; -570
19:18:22,371; -555
19:18:22,375; -551
19:18:22,379; -559
19:18:22,383; -568
19:18:22,387; -584
19:18:22,391; -585
19:18:22,395; -584
19:18:22,398; -595
19:18:22,402; -589
19:18:22,406; -580
19:18:22,410; -614
19:18:22,414; -601
19:18:22,418; -611
19:18:22,422; -612
19:18:22,426; -608
19:18:22,430; -620
19:18:22,434; -628
19:18:22,438; -638
19:18:22,441; -638
19:18:22,445; -643
19:18:22,449; -643
19:18:22,453; -631
19:18:22,457; -633
19:18:22,461; -643
19:18:22,465; -648
19:18:22,469; -653
19:18:22,473; -650
19:18:22,477; -648
19:18:22,480; -652
19:18:22,484; -647
19:18:22,488; -654
19:18:22,492; -663
19:18:22,496; -646
19:18:22,500; -652
19:18:22,504; -658
19:18:22,508; -651
19:18:22,512; -644
19:18:22,516; -662
19:18:22,520; -657
19:18:22,523; -653
19:18:22,527; -652
19:18:22,531; -648
19:18:22,535; -652
19:18:22,539; -662
19:18:22,543; -645
19:18:22,547; -664
19:18:22,551; -660
19:18:22,555; -669
19:18:22,559; -662
19:18:22,563; -664
19:18:22,566; -663
19:18:22,570; -654
19:18:22,574; -665
19:18:22,578; -654
19:18:22,582; -653
19:18:22,586; -652
19:18:22,590; -654
19:18:22,594; -658
19:18:22,598; -666
19:18:22,602; -662
19:18:22,605; -664
19:18:22,609; -659
19:18:22,613; -657
19:18:22,617; -662
19:18:22,621; -658
19:18:22,625; -669
19:18:22,629; -668
19:18:22,633; -663
19:18:22,637; -653
19:18:22,641; -641
19:18:22,645; -653
19:18:22,648; -662
19:18:22,652; -650
19:18:22,656; -656
19:18:22,660; -646
19:18:22,664; -630
19:18:22,668; -624
19:18:22,672; -629
19:18:22,676; -626
19:18:22,680; -609
19:18:22,684; -594
19:18:22,688; -578
19:18:22,691; -557
19:18:22,695; -528
19:18:22,699; -527
19:18:22,703; -512
19:18:22,707; -517
19:18:22,711; -530
19:18:22,715; -537
19:18:22,719; -562
19:18:22,723; -560
19:18:22,727; -549
19:18:22,730; -578
19:18:22,734; -581
19:18:22,738; -580
19:18:22,742; -608
19:18:22,746; -635
19:18:22,750; -639
19:18:22,754; -635
19:18:22,758; -646
19:18:22,762; -668
19:18:22,766; -659
19:18:22,770; -666
19:18:22,773; -655
19:18:22,777; -649
19:18:22,781; -647
19:18:22,785; -650
19:18:22,789; -636
19:18:22,793; -635
19:18:22,797; -635
19:18:22,801; -643
19:18:22,805; -649
19:18:22,809; -663
19:18:22,813; -625
19:18:22,816; -590
19:18:22,820; -507
19:18:22,824; -316
19:18:22,828; 87
19:18:22,832; 719
19:18:22,836; 1193
19:18:22,840; 1755
19:18:22,844; 1986
19:18:22,848; 1892
19:18:22,852; 1492
19:18:22,855; 752
19:18:22,859; 26
19:18:22,863; -540
19:18:22,867; -664
19:18:22,871; -756
19:18:22,875; -637
19:18:22,879; -541
19:18:22,883; -416
19:18:22,887; -544
19:18:22,891; -573
19:18:22,895; -618
19:18:22,898; -592
19:18:22,902; -531
19:18:22,906; -542
19:18:22,910; -600
19:18:22,914; -604
19:18:22,918; -599
19:18:22,922; -545
19:18:22,926; -596
19:18:22,930; -606
19:18:22,934; -599
19:18:22,938; -609
19:18:22,941; -612
19:18:22,945; -640
19:18:22,949; -624
19:18:22,953; -623
19:18:22,957; -626
19:18:22,961; -623
19:18:22,965; -613
19:18:22,969; -634
19:18:22,973; -625
19:18:22,977; -636
19:18:22,980; -621
19:18:22,984; -623
19:18:22,988; -639
19:18:22,992; -624
19:18:22,996; -626
19:18:23,000; -640
19:18:23,004; -614
19:18:23,008; -630
19:18:23,012; -600
19:18:23,016; -591
19:18:23,020; -606
19:18:23,023; -588
19:18:23,027; -561
19:18:23,031; -578
19:18:23,035; -563
19:18:23,039; -538
19:18:23,043; -513
19:18:23,047; -490
19:18:23,051; -467
19:18:23,055; -458
19:18:23,059; -441
19:18:23,062; -417
19:18:23,066; -414
19:18:23,070; -382
19:18:23,074; -345
19:18:23,078; -344
19:18:23,082; -316
19:18:23,086; -306
19:18:23,090; -303
19:18:23,094; -271
19:18:23,098; -264
19:18:23,102; -236
19:18:23,105; -241
19:18:23,109; -226
19:18:23,113; -239
19:18:23,117; -265
19:18:23,121; -281
19:18:23,125; -321
19:18:23,129; -355
19:18:23,133; -410
19:18:23,137; -434
19:18:23,141; -465
19:18:23,145; -511
19:18:23,148; -557
19:18:23,152; -586
19:18:23,156; -631
19:18:23,160; -668
19:18:23,164; -712
19:18:23,168; -733
19:18:23,172; -752
19:18:23,176; -769
19:18:23,180; -798
19:18:23,184; -812
19:18:23,188; -833
19:18:23,191; -838
19:18:23,195; -853
19:18:23,199; -857
19:18:23,203; -858
19:18:23,207; -877
19:18:23,211; -888
19:18:23,215; -911
19:18:23,219; -931
19:18:23,223; -949
19:18:23,227; -935
19:18:23,230; -934
19:18:23,234; -957
19:18:23,238; -984
19:18:23,242; -954
19:18:23,246; -967
19:18:23,250; -989
19:18:23,254; -963
19:18:23,258; -953
19:18:23,262; -968
19:18:23,266; -970
19:18:23,270; -994
19:18:23,273; -980
19:18:23,277; -993
19:18:23,281; -1003
19:18:23,285; -987
19:18:23,289; -1017
19:18:23,293; -1001
19:18:23,297; -1013
19:18:23,301; -1009
19:18:23,305; -1012
19:18:23,309; -1021
19:18:23,312; -1016
19:18:23,316; -1031
19:18:23,320; -1033
19:18:23,324; -1039
19:18:23,328; -1045
19:18:23,332; -1041
19:18:23,336; -1034
19:18:23,340; -1065
19:18:23,344; -1069
19:18:23,348; -1050
19:18:23,352; -1071
19:18:23,355; -1066
19:18:23,359; -1047
19:18:23,363; -1059
19:18:23,367; -1046
19:18:23,371; -1060
19:18:23,375; -1062
19:18:23,379; -1063
19:18:23,383; -1061
19:18:23,387; -1054
19:18:23,391; -1046
19:18:23,395; -1046
19:18:23,398; -1032
19:18:23,402; -1017
19:18:23,406; -990
19:18:23,410; -975
19:18:23,414; -982
19:18:23,418; -948
19:18:23,422; -952
19:18:23,426; -930
19:18:23,430; -937
19:18:23,434; -911
19:18:23,438; -900
19:18:23,441; -930
19:18:23,445; -945
19:18:23,449; -959
19:18:23,453; -953
19:18:23,457; -962
19:18:23,461; -961
19:18:23,465; -961
19:18:23,469; -976
19:18:23,473; -983
19:18:23,477; -1016
19:18:23,480; -1020
19:18:23,484; -1041
19:18:23,488; -1054
19:18:23,492; -1061
19:18:23,496; -1060
19:18:23,500; -1049
19:18:23,504; -1043
19:18:23,508; -1031
19:18:23,512; -1031
19:18:23,516; -1030
19:18:23,520; -1059
19:18:23,523; -1043
19:18:23,527; -1043
19:18:23,531; -1049
19:18:23,535; -1046
19:18:23,539; -1049
19:18:23,543; -1085
19:18:23,547; -1058
19:18:23,551; -1026
19:18:23,555; -944
19:18:23,559; -781
19:18:23,562; -453
19:18:23,566; 247
19:18:23,570; 970
19:18:23,574; 1412
19:18:23,578; 1943
19:18:23,582; 1982
19:18:23,586; 1617
19:18:23,590; 747
19:18:23,594; -60
19:18:23,598; -722
19:18:23,602; -1084
19:18:23,605; -1208
19:18:23,609; -1113
19:18:23,613; -881
19:18:23,617; -846
19:18:23,621; -813
19:18:23,625; -966
19:18:23,629; -1029
19:18:23,633; -942
19:18:23,637; -966
19:18:23,641; -1002
19:18:23,645; -990
19:18:23,648; -987
19:18:23,652; -1007
19:18:23,656; -997
19:18:23,660; -968
19:18:23,664; -976
19:18:23,668; -974
19:18:23,672; -976
19:18:23,676; -935
19:18:23,680; -951
19:18:23,684; -926
19:18:23,688; -929
19:18:23,691; -948
19:18:23,695; -916
19:18:23,699; -898
19:18:23,703; -938
19:18:23,707; -912
19:18:23,711; -902
19:18:23,715; -925
19:18:23,719; -924
19:18:23,723; -882
19:18:23,727; -879
19:18:23,730; -873
19:18:23,734; -842
19:18:23,738; -843
19:18:23,742; -813
19:18:23,746; -823
19:18:23,750; -805
19:18:23,754; -800
19:18:23,758; -782
19:18:23,762; -748
19:18:23,766; -741
19:18:23,770; -730
19:18:23,773; -698
19:18:23,777; -682
19:18:23,781; -666
19:18:23,785; -637
19:18:23,789; -588
19:18:23,793; -552
19:18:23,797; -525
19:18:23,801; -516
19:18:23,805; -472
19:18:23,809; -454
19:18:23,812; -416
19:18:23,816; -391
19:18:23,820; -346
19:18:23,824; -343
19:18:23,828; -308
19:18:23,832; -310
19:18:23,836; -297
19:18:23,840; -295
19:18:23,844; -299
19:18:23,848; -325
19:18:23,852; -354
19:18:23,855; -408
19:18:23,859; -475
19:18:23,863; -507
19:18:23,867; -583
19:18:23,871; -610
19:18:23,875; -653
19:18:23,879; -664
19:18:23,883; -706
19:18:23,887; -723
19:18:23,891; -745
19:18:23,895; -767
19:18:23,898; -798
19:18:23,902; -810
19:18:23,906; -845
19:18:23,910; -883
19:18:23,914; -865
19:18:23,918; -881
19:18:23,922; -841
19:18:23,926; -855
19:18:23,930; -864
19:18:23,934; -862
19:18:23,938; -860
19:18:23,941; -892
19:18:23,945; -863
19:18:23,949; -839
19:18:23,953; -848
19:18:23,957; -855
19:18:23,961; -848
19:18:23,965; -850
19:18:23,969; -841
19:18:23,973; -819
19:18:23,977; -825
19:18:23,980; -807
19:18:23,984; -811
19:18:23,988; -811
19:18:23,992; -798
19:18:23,996; -806
19:18:24,000; -801
19:18:24,004; -810
19:18:24,008; -813
19:18:24,012; -802
19:18:24,016; -808
19:18:24,020; -805
19:18:24,023; -818
19:18:24,027; -804
19:18:24,031; -822
19:18:24,035; -825
19:18:24,039; -846
19:18:24,043; -815
19:18:24,047; -841
19:18:24,051; -826
19:18:24,055; -842
19:18:24,059; -813
19:18:24,063; -821
19:18:24,066; -828
19:18:24,070; -802
19:18:24,074; -787
19:18:24,078; -774
19:18:24,082; -772
19:18:24,086; -770
19:18:24,090; -746
19:18:24,094; -750
19:18:24,098; -754
19:18:24,102; -718
19:18:24,105; -727
19:18:24,109; -755
19:18:24,113; -743
19:18:24,117; -766
19:18:24,121; -754
19:18:24,125; -727
19:18:24,129; -785
19:18:24,133; -793
19:18:24,137; -831
19:18:24,141; -857
19:18:24,145; -894
19:18:24,148; -882
19:18:24,152; -907
19:18:24,156; -923
19:18:24,160; -902
19:18:24,164; -911
19:18:24,168; -904
19:18:24,172; -909
19:18:24,176; -882
19:18:24,180; -909
19:18:24,184; -930
19:18:24,188; -896
19:18:24,191; -916
19:18:24,195; -904
19:18:24,199; -906
19:18:24,203; -883
19:18:24,207; -928
19:18:24,211; -918
19:18:24,215; -908
19:18:24,219; -853
19:18:24,223; -730
19:18:24,227; -451
19:18:24,230; 6
19:18:24,234; 688
19:18:24,238; 1347
19:18:24,242; 1870
19:18:24,246; 2122
19:18:24,250; 2187
19:18:24,254; 1891
19:18:24,258; 1052
19:18:24,262; 252
19:18:24,266; -587
19:18:24,270; -918
19:18:24,273; -1108
19:18:24,277; -1070
19:18:24,281; -827
19:18:24,285; -627
19:18:24,289; -703
19:18:24,293; -826
19:18:24,297; -821
19:18:24,301; -862
19:18:24,305; -776
19:18:24,309; -803
19:18:24,313; -845
19:18:24,316; -834
19:18:24,320; -878
19:18:24,324; -840
19:18:24,328; -811
19:18:24,332; -829
19:18:24,336; -842
19:18:24,340; -828
19:18:24,344; -797
19:18:24,348; -816
19:18:24,352; -805
19:18:24,355; -782
19:18:24,359; -785
19:18:24,363; -770
19:18:24,367; -777
19:18:24,371; -765
19:18:24,375; -764
19:18:24,379; -743
19:18:24,383; -777
19:18:24,387; -731
19:18:24,391; -738
19:18:24,395; -723
19:18:24,398; -722
19:18:24,402; -706
19:18:24,406; -688
19:18:24,410; -665
19:18:24,414; -643
19:18:24,418; -640
19:18:24,422; -623
19:18:24,426; -597
19:18:24,430; -621
19:18:24,434; -563
19:18:24,438; -549
19:18:24,441; -537
19:18:24,445; -470
19:18:24,449; -461
19:18:24,453; -433
19:18:24,457; -383
19:18:24,461; -370
19:18:24,465; -303
19:18:24,469; -291
19:18:24,473; -241
19:18:24,477; -236
19:18:24,480; -174
19:18:24,484; -118
19:18:24,488; -145
19:18:24,492; -93
19:18:24,496; -108
19:18:24,500; -86
19:18:24,504; -121
19:18:24,508; -132
19:18:24,512; -159
19:18:24,516; -200
19:18:24,520; -279
19:18:24,523; -299
19:18:24,527; -340
19:18:24,531; -422
19:18:24,535; -465
19:18:24,539; -472
19:18:24,543; -578
19:18:24,547; -593
19:18:24,551; -608
19:18:24,555; -623
19:18:24,559; -655
19:18:24,562; -679
19:18:24,566; -671
19:18:24,570; -699
19:18:24,574; -717
19:18:24,578; -681
19:18:24,582; -694
19:18:24,586; -712
19:18:24,590; -732
19:18:24,594; -702
19:18:24,598; -744
19:18:24,602; -743
19:18:24,605; -767
19:18:24,609; -723
19:18:24,613; -745
19:18:24,617; -728
19:18:24,621; -717
19:18:24,625; -711
19:18:24,629; -748
19:18:24,633; -703
19:18:24,637; -712
19:18:24,641; -724
19:18:24,645; -675
19:18:24,648; -678
19:18:24,652; -681
19:18:24,656; -672
19:18:24,660; -662
19:18:24,664; -676
19:18:24,668; -684
19:18:24,672; -655
19:18:24,676; -694
19:18:24,680; -634
19:18:24,684; -640
19:18:24,688; -667
19:18:24,691; -663
19:18:24,695; -650
19:18:24,699; -687
19:18:24,703; -664
19:18:24,707; -637
19:18:24,711; -670
19:18:24,715; -677
19:18:24,719; -715
19:18:24,723; -678
19:18:24,727; -668
19:18:24,730; -694
19:18:24,734; -647
19:18:24,738; -705
19:18:24,742; -692
19:18:24,746; -702
19:18:24,750; -691
19:18:24,754; -682
19:18:24,758; -663
19:18:24,762; -648
19:18:24,766; -632
19:18:24,770; -604
19:18:24,773; -610
19:18:24,777; -578
19:18:24,781; -580
19:18:24,785; -582
19:18:24,789; -561
19:18:24,793; -566
19:18:24,797; -554
19:18:24,801; -577
19:18:24,805; -588
19:18:24,809; -613
19:18:24,812; -626
19:18:24,816; -605
19:18:24,820; -629
19:18:24,824; -665
19:18:24,828; -660
19:18:24,832; -694
19:18:24,836; -739
19:18:24,840; -731
19:18:24,844; -739
19:18:24,848; -787
19:18:24,852; -743
19:18:24,855; -751
19:18:24,859; -757
19:18:24,863; -750
19:18:24,867; -742
19:18:24,871; -758
19:18:24,875; -740
19:18:24,879; -756
19:18:24,883; -773
19:18:24,887; -741
19:18:24,891; -751
19:18:24,895; -752
19:18:24,898; -778
19:18:24,902; -757
19:18:24,906; -729
19:18:24,910; -638
19:18:24,914; -450
19:18:24,918; -169
19:18:24,922; 382
19:18:24,926; 935
19:18:24,930; 1525
19:18:24,934; 2003
19:18:24,938; 2095
19:18:24,941; 2030
19:18:24,945; 1750
19:18:24,949; 1013
19:18:24,953; -8
19:18:24,957; -455
19:18:24,961; -643
19:18:24,965; -825
19:18:24,969; -856
19:18:24,973; -491
19:18:24,977; -509
19:18:24,980; -685
19:18:24,984; -735
19:18:24,988; -829
19:18:24,992; -686
19:18:24,996; -694
19:18:25,000; -655
19:18:25,004; -752
19:18:25,008; -719
19:18:25,012; -739
19:18:25,016; -680
19:18:25,020; -718
19:18:25,023; -701
19:18:25,027; -689
19:18:25,031; -705
19:18:25,035; -742
19:18:25,039; -681
19:18:25,043; -701
19:18:25,047; -695
19:18:25,051; -712
19:18:25,055; -672
19:18:25,059; -676
19:18:25,062; -669
19:18:25,066; -664
19:18:25,070; -649
19:18:25,074; -668
19:18:25,078; -636
19:18:25,082; -637
19:18:25,086; -649
19:18:25,090; -617
19:18:25,094; -613
19:18:25,098; -605
19:18:25,102; -583
19:18:25,105; -575
19:18:25,109; -549
19:18:25,113; -540
19:18:25,117; -534
19:18:25,121; -510
19:18:25,125; -509
19:18:25,129; -467
19:18:25,133; -450
19:18:25,137; -426
19:18:25,141; -402
19:18:25,145; -374
19:18:25,148; -338
19:18:25,152; -289
19:18:25,156; -269
19:18:25,160; -238
19:18:25,164; -207
19:18:25,168; -203
19:18:25,172; -157
19:18:25,176; -141
19:18:25,180; -118
19:18:25,184; -99
19:18:25,188; -90
19:18:25,191; -80
19:18:25,195; -106
19:18:25,199; -119
19:18:25,203; -151
19:18:25,207; -204
19:18:25,211; -247
19:18:25,215; -300
19:18:25,219; -332
19:18:25,223; -363
19:18:25,227; -421
19:18:25,230; -450
19:18:25,234; -491
19:18:25,238; -535
19:18:25,242; -552
19:18:25,246; -573
19:18:25,250; -606
19:18:25,254; -605
19:18:25,258; -628
19:18:25,262; -653
19:18:25,266; -643
19:18:25,270; -651
19:18:25,273; -658
19:18:25,277; -667
19:18:25,281; -644
19:18:25,285; -661
19:18:25,289; -675
19:18:25,293; -672
19:18:25,297; -651
19:18:25,301; -665
19:18:25,305; -671
19:18:25,309; -660
19:18:25,312; -642
19:18:25,316; -675
19:18:25,320; -669
19:18:25,324; -657
19:18:25,328; -663
19:18:25,332; -649
19:18:25,336; -635
19:18:25,340; -603
19:18:25,344; -623
19:18:25,348; -627
19:18:25,352; -607
19:18:25,355; -624
19:18:25,359; -630
19:18:25,363; -613
19:18:25,367; -603
19:18:25,371; -610
19:18:25,375; -627
19:18:25,379; -620
19:18:25,383; -625
19:18:25,387; -623
19:18:25,391; -610
19:18:25,395; -632
19:18:25,398; -635
19:18:25,402; -652
19:18:25,406; -674
19:18:25,410; -662
19:18:25,414; -669
19:18:25,418; -659
19:18:25,422; -655
19:18:25,426; -658
19:18:25,430; -660
19:18:25,434; -667
19:18:25,438; -683
19:18:25,441; -687
19:18:25,445; -698
19:18:25,449; -713
19:18:25,453; -703
19:18:25,457; -697
19:18:25,461; -696
19:18:25,465; -688
19:18:25,469; -713
19:18:25,473; -723
19:18:25,477; -712
19:18:25,480; -724
19:18:25,484; -725
19:18:25,488; -727
19:18:25,492; -722
19:18:25,496; -747
19:18:25,500; -725
19:18:25,504; -730
19:18:25,508; -734
19:18:25,512; -715
19:18:25,516; -708
19:18:25,520; -739
19:18:25,523; -720
19:18:25,527; -741
19:18:25,531; -742
19:18:25,535; -745
19:18:25,539; -758
19:18:25,543; -735
19:18:25,547; -725
19:18:25,551; -732
19:18:25,555; -741
19:18:25,559; -733
19:18:25,563; -736
19:18:25,566; -750
19:18:25,570; -744
19:18:25,574; -728
19:18:25,578; -733
19:18:25,582; -735
19:18:25,586; -731
19:18:25,590; -742
19:18:25,594; -729
19:18:25,598; -738
19:18:25,602; -745
19:18:25,605; -720
19:18:25,609; -736
19:18:25,613; -742
19:18:25,617; -728
19:18:25,621; -735
19:18:25,625; -727
19:18:25,629; -741
19:18:25,633; -732
19:18:25,637; -735
19:18:25,641; -732
19:18:25,645; -732
19:18:25,648; -735
19:18:25,652; -724
19:18:25,656; -734
19:18:25,660; -732
19:18:25,664; -726
19:18:25,668; -723
19:18:25,672; -720
19:18:25,676; -728
19:18:25,680; -716
19:18:25,684; -708
19:18:25,688; -720
19:18:25,691; -710
19:18:25,695; -707
19:18:25,699; -708
19:18:25,703; -712
19:18:25,707; -744
19:18:25,711; -713
19:18:25,715; -716
19:18:25,719; -726
19:18:25,723; -713
19:18:25,727; -701
19:18:25,730; -689
19:18:25,734; -717
19:18:25,738; -734
19:18:25,742; -728
19:18:25,746; -733
19:18:25,750; -745
19:18:25,754; -732
19:18:25,758; -720
19:18:25,762; -711
19:18:25,766; -735
19:18:25,770; -735
19:18:25,773; -722
19:18:25,777; -728
19:18:25,781; -737
19:18:25,785; -728
19:18:25,789; -729
19:18:25,793; -733
19:18:25,797; -727
19:18:25,801; -728
19:18:25,805; -706
19:18:25,809; -677
19:18:25,813; -679
19:18:25,816; -641
19:18:25,820; -625
19:18:25,824; -640
19:18:25,828; -617
19:18:25,832; -602
19:18:25,836; -598
19:18:25,840; -607
19:18:25,844; -602
19:18:25,848; -622
19:18:25,852; -633
19:18:25,855; -646
19:18:25,859; -649
19:18:25,863; -642
19:18:25,867; -652
19:18:25,871; -657
19:18:25,875; -665
19:18:25,879; -693
19:18:25,883; -695
19:18:25,887; -727
19:18:25,891; -740
19:18:25,895; -732
19:18:25,898; -760
19:18:25,902; -734
19:18:25,906; -734
19:18:25,910; -741
19:18:25,914; -730
19:18:25,918; -741
19:18:25,922; -747
19:18:25,926; -744
19:18:25,930; -748
19:18:25,934; -737
19:18:25,938; -746
19:18:25,941; -762
19:18:25,945; -769
19:18:25,949; -743
19:18:25,953; -690
19:18:25,957; -576
19:18:25,961; -328
19:18:25,965; 203
19:18:25,969; 897
19:18:25,973; 1456
19:18:25,977; 1926
19:18:25,980; 2035
19:18:25,984; 1884
19:18:25,988; 1240
19:18:25,992; 483
19:18:25,996; -249
19:18:26,000; -655
19:18:26,004; -795
19:18:26,008; -837
19:18:26,012; -802
19:18:26,016; -591
19:18:26,020; -646
19:18:26,023; -677
19:18:26,027; -782
19:18:26,031; -784
19:18:26,035; -700
19:18:26,039; -681
19:18:26,043; -740
19:18:26,047; -709
19:18:26,051; -723
19:18:26,055; -730
19:18:26,059; -676
19:18:26,063; -720
19:18:26,066; -725
19:18:26,070; -721
19:18:26,074; -735
19:18:26,078; -739
19:18:26,082; -720
19:18:26,086; -708
19:18:26,090; -713
19:18:26,094; -688
19:18:26,098; -711
19:18:26,102; -692
19:18:26,105; -692
19:18:26,109; -679
19:18:26,113; -668
19:18:26,117; -658
19:18:26,121; -670
19:18:26,125; -653
19:18:26,129; -655
19:18:26,133; -650
19:18:26,137; -636
19:18:26,141; -632
19:18:26,145; -606
19:18:26,148; -601
19:18:26,152; -608
19:18:26,156; -563
19:18:26,160; -591
19:18:26,164; -580
19:18:26,168; -549
19:18:26,172; -536
19:18:26,176; -533
19:18:26,180; -512
19:18:26,184; -494
19:18:26,188; -462
19:18:26,191; -455
19:18:26,195; -426
19:18:26,199; -402
19:18:26,203; -372
19:18:26,207; -357
19:18:26,211; -343
19:18:26,215; -321
19:18:26,219; -287
19:18:26,223; -268
19:18:26,227; -252
19:18:26,230; -233
19:18:26,234; -197
19:18:26,238; -175
19:18:26,242; -192
19:18:26,246; -170
19:18:26,250; -162
19:18:26,254; -193
19:18:26,258; -200
19:18:26,262; -220
19:18:26,266; -263
19:18:26,270; -296
19:18:26,273; -310
19:18:26,277; -373
19:18:26,281; -391
19:18:26,285; -419
19:18:26,289; -453
19:18:26,293; -498
19:18:26,297; -509
19:18:26,301; -538
19:18:26,305; -556
19:18:26,309; -575
19:18:26,312; -576
19:18:26,316; -568
19:18:26,320; -604
19:18:26,324; -607
19:18:26,328; -612
19:18:26,332; -618
19:18:26,336; -630
19:18:26,340; -638
19:18:26,344; -618
19:18:26,348; -610
19:18:26,352; -633
19:18:26,355; -616
19:18:26,359; -615
19:18:26,363; -611
19:18:26,367; -594
19:18:26,371; -595
19:18:26,375; -609
19:18:26,379; -600
19:18:26,383; -591
19:18:26,387; -598
19:18:26,391; -590
19:18:26,395; -580
19:18:26,398; -581
19:18:26,402; -603
19:18:26,406; -612
19:18:26,410; -611
19:18:26,414; -617
19:18:26,418; -620
19:18:26,422; -612
19:18:26,426; -623
19:18:26,430; -625
19:18:26,434; -633
19:18:26,438; -653
19:18:26,441; -631
19:18:26,445; -642
19:18:26,449; -663
19:18:26,453; -653
19:18:26,457; -662
19:18:26,461; -666
19:18:26,465; -675
19:18:26,469; -665
19:18:26,473; -683
19:18:26,477; -702
19:18:26,480; -681
19:18:26,484; -691
19:18:26,488; -696
19:18:26,492; -680
19:18:26,496; -693
19:18:26,500; -700
19:18:26,504; -699
19:18:26,508; -719
19:18:26,512; -718
19:18:26,516; -712
19:18:26,520; -717
19:18:26,523; -712
19:18:26,527; -705
19:18:26,531; -720
19:18:26,535; -690
19:18:26,539; -706
19:18:26,543; -727
19:18:26,547; -709
19:18:26,551; -715
19:18:26,555; -722
19:18:26,559; -726
19:18:26,562; -713
19:18:26,566; -708
19:18:26,570; -703
19:18:26,574; -727
19:18:26,578; -708
19:18:26,582; -720
19:18:26,586; -719
19:18:26,590; -716
19:18:26,594; -713
19:18:26,598; -716
19:18:26,602; -714
19:18:26,605; -727
19:18:26,609; -718
19:18:26,613; -711
19:18:26,617; -711
19:18:26,621; -719
19:18:26,625; -710
19:18:26,629; -715
19:18:26,633; -711
19:18:26,637; -720
19:18:26,641; -708
19:18:26,645; -728
19:18:26,648; -726
19:18:26,652; -734
19:18:26,656; -720
19:18:26,660; -715
19:18:26,664; -728
19:18:26,668; -730
19:18:26,672; -727
19:18:26,676; -727
19:18:26,680; -718
19:18:26,684; -718
19:18:26,688; -715
19:18:26,691; -722
19:18:26,695; -740
19:18:26,699; -742
19:18:26,703; -728
19:18:26,707; -723
19:18:26,711; -705
19:18:26,715; -709
19:18:26,719; -737
19:18:26,723; -709
19:18:26,727; -733
19:18:26,730; -734
19:18:26,734; -718
19:18:26,738; -709
19:18:26,742; -732
19:18:26,746; -739
19:18:26,750; -725
19:18:26,754; -729
19:18:26,758; -710
19:18:26,762; -702
19:18:26,766; -709
19:18:26,770; -684
19:18:26,773; -675
19:18:26,777; -688
19:18:26,781; -664
19:18:26,785; -630
19:18:26,789; -633
19:18:26,793; -629
19:18:26,797; -599
19:18:26,801; -571
19:18:26,805; -599
19:18:26,809; -615
19:18:26,812; -594
19:18:26,816; -623
19:18:26,820; -636
19:18:26,824; -664
19:18:26,828; -654
19:18:26,832; -661
19:18:26,836; -676
19:18:26,840; -686
19:18:26,844; -690
19:18:26,848; -704
19:18:26,852; -721
19:18:26,855; -751
19:18:26,859; -742
19:18:26,863; -734
19:18:26,867; -753
19:18:26,871; -735
19:18:26,875; -744
19:18:26,879; -726
19:18:26,883; -730
19:18:26,887; -713
19:18:26,891; -725
19:18:26,895; -702
19:18:26,898; -728
19:18:26,902; -730
19:18:26,906; -773
19:18:26,910; -740
19:18:26,914; -664
19:18:26,918; -549
19:18:26,922; -273
19:18:26,926; 101
19:18:26,930; 672
19:18:26,934; 1219
19:18:26,938; 1648
19:18:26,941; 1852
19:18:26,945; 1806
19:18:26,949; 1484
19:18:26,953; 773
19:18:26,957; -119
19:18:26,961; -563
19:18:26,965; -919
19:18:26,969; -998
19:18:26,973; -890
19:18:26,977; -669
19:18:26,980; -518
19:18:26,984; -610
19:18:26,988; -705
19:18:26,992; -672
19:18:26,996; -728
19:18:27,000; -657
19:18:27,004; -693
19:18:27,008; -658
19:18:27,012; -707
19:18:27,016; -673
19:18:27,020; -699
19:18:27,023; -666
19:18:27,027; -651
19:18:27,031; -674
19:18:27,035; -680
19:18:27,039; -660
19:18:27,043; -658
19:18:27,047; -678
19:18:27,051; -654
19:18:27,055; -661
19:18:27,059; -630
19:18:27,062; -649
19:18:27,066; -652
19:18:27,070; -652
19:18:27,074; -660
19:18:27,078; -637
19:18:27,082; -629
19:18:27,086; -615
19:18:27,090; -604
19:18:27,094; -611
19:18:27,098; -607
19:18:27,102; -596
19:18:27,105; -594
19:18:27,109; -564
19:18:27,113; -588
19:18:27,117; -571
19:18:27,121; -551
19:18:27,125; -547
19:18:27,129; -526
19:18:27,133; -484
19:18:27,137; -479
19:18:27,141; -455
19:18:27,145; -457
19:18:27,148; -442
19:18:27,152; -413
19:18:27,156; -380
19:18:27,160; -354
19:18:27,164; -335
19:18:27,168; -306
19:18:27,172; -294
19:18:27,176; -268
19:18:27,180; -251
19:18:27,184; -223
19:18:27,188; -205
19:18:27,191; -189
19:18:27,195; -182
19:18:27,199; -170
19:18:27,203; -142
19:18:27,207; -139
19:18:27,211; -140
19:18:27,215; -165
19:18:27,219; -172
19:18:27,223; -206
19:18:27,227; -246
19:18:27,230; -268
19:18:27,234; -301
19:18:27,238; -357
19:18:27,242; -378
19:18:27,246; -421
19:18:27,250; -443
19:18:27,254; -498
19:18:27,258; -513
19:18:27,262; -545
19:18:27,266; -550
19:18:27,270; -575
19:18:27,273; -586
19:18:27,277; -593
19:18:27,281; -601
19:18:27,285; -619
19:18:27,289; -627
19:18:27,293; -628
19:18:27,297; -615
19:18:27,301; -609
19:18:27,305; -620
19:18:27,309; -610
19:18:27,313; -615
19:18:27,316; -607
19:18:27,320; -597
19:18:27,324; -600
19:18:27,328; -585
19:18:27,332; -591
19:18:27,336; -602
19:18:27,340; -602
19:18:27,344; -594
19:18:27,348; -582
19:18:27,352; -586
19:18:27,355; -571
19:18:27,359; -579
19:18:27,363; -594
19:18:27,367; -596
19:18:27,371; -592
19:18:27,375; -599
19:18:27,379; -584
19:18:27,383; -590
19:18:27,387; -599
19:18:27,391; -600
19:18:27,395; -620
19:18:27,398; -613
19:18:27,402; -614
19:18:27,406; -629
19:18:27,410; -626
19:18:27,414; -638
19:18:27,418; -642
19:18:27,422; -668
19:18:27,426; -654
19:18:27,430; -653
19:18:27,434; -647
19:18:27,438; -659
19:18:27,441; -664
19:18:27,445; -657
19:18:27,449; -662
19:18:27,453; -671
19:18:27,457; -660
19:18:27,461; -674
19:18:27,465; -678
19:18:27,469; -673
19:18:27,473; -696
19:18:27,477; -688
19:18:27,480; -666
19:18:27,484; -685
19:18:27,488; -692
19:18:27,492; -676
19:18:27,496; -673
19:18:27,500; -689
19:18:27,504; -688
19:18:27,508; -684
19:18:27,512; -708
19:18:27,516; -695
19:18:27,520; -695
19:18:27,523; -685
19:18:27,527; -695
19:18:27,531; -675
19:18:27,535; -688
19:18:27,539; -698
19:18:27,543; -692
19:18:27,547; -692
19:18:27,551; -681
19:18:27,555; -683
19:18:27,559; -685
19:18:27,563; -685
19:18:27,566; -666
19:18:27,570; -677
19:18:27,574; -691
19:18:27,578; -663
19:18:27,582; -631
19:18:27,586; -630
19:18:27,590; -606
19:18:27,594; -576
19:18:27,598; -580
19:18:27,602; -573
19:18:27,605; -575
19:18:27,609; -553
19:18:27,613; -542
19:18:27,617; -554
19:18:27,621; -561
19:18:27,625; -590
19:18:27,629; -603
19:18:27,633; -606
19:18:27,637; -607
19:18:27,641; -591
19:18:27,645; -610
19:18:27,648; -622
19:18:27,652; -641
19:18:27,656; -665
19:18:27,660; -688
19:18:27,664; -697
19:18:27,668; -696
19:18:27,672; -689
19:18:27,676; -716
19:18:27,680; -681
19:18:27,684; -689
19:18:27,688; -685
19:18:27,691; -719
19:18:27,695; -691
19:18:27,699; -687
19:18:27,703; -709
19:18:27,707; -684
19:18:27,711; -697
19:18:27,715; -690
19:18:27,719; -724
19:18:27,723; -732
19:18:27,727; -688
19:18:27,730; -631
19:18:27,734; -519
19:18:27,738; -292
19:18:27,742; 187
19:18:27,746; 814
19:18:27,750; 1322
19:18:27,754; 1901
19:18:27,758; 1983
19:18:27,762; 2010
19:18:27,766; 1444
19:18:27,770; 649
19:18:27,773; -316
19:18:27,777; -599
19:18:27,781; -831
19:18:27,785; -870
19:18:27,789; -610
19:18:27,793; -484
19:18:27,797; -512
19:18:27,801; -573
19:18:27,805; -770
19:18:27,809; -675
19:18:27,812; -644
19:18:27,816; -553
19:18:27,820; -562
19:18:27,824; -646
19:18:27,828; -654
19:18:27,832; -588
19:18:27,836; -630
19:18:27,840; -619
19:18:27,844; -656
19:18:27,848; -620
19:18:27,852; -634
19:18:27,855; -648
19:18:27,859; -606
19:18:27,863; -609
19:18:27,867; -613
19:18:27,871; -577
19:18:27,875; -609
19:18:27,879; -586
19:18:27,883; -578
19:18:27,887; -585
19:18:27,891; -584
19:18:27,895; -565
19:18:27,898; -564
19:18:27,902; -553
19:18:27,906; -543
19:18:27,910; -534
19:18:27,914; -534
19:18:27,918; -518
19:18:27,922; -495
19:18:27,926; -490
19:18:27,930; -477
19:18:27,934; -461
19:18:27,938; -460
19:18:27,941; -454
19:18:27,945; -439
19:18:27,949; -407
19:18:27,953; -390
19:18:27,957; -363
19:18:27,961; -348
19:18:27,965; -315
19:18:27,969; -285
19:18:27,973; -258
19:18:27,977; -212
19:18:27,980; -189
19:18:27,984; -179
19:18:27,988; -140
19:18:27,992; -137
19:18:27,996; -122
19:18:28,000; -86
19:18:28,004; -77
19:18:28,008; -56
19:18:28,012; -28
19:18:28,016; -19
19:18:28,020; -25
19:18:28,023; -3
19:18:28,027; -44
19:18:28,031; -63
19:18:28,035; -108
19:18:28,039; -148
19:18:28,043; -191
19:18:28,047; -243
19:18:28,051; -260
19:18:28,055; -301
19:18:28,059; -332
19:18:28,062; -375
19:18:28,066; -408
19:18:28,070; -444
19:18:28,074; -472
19:18:28,078; -482
19:18:28,082; -497
19:18:28,086; -517
19:18:28,090; -527
19:18:28,094; -533
19:18:28,098; -546
19:18:28,102; -548
19:18:28,105; -550
19:18:28,109; -526
19:18:28,113; -552
19:18:28,117; -566
19:18:28,121; -543
19:18:28,125; -545
19:18:28,129; -529
19:18:28,133; -527
19:18:28,137; -507
19:18:28,141; -522
19:18:28,145; -524
19:18:28,148; -522
19:18:28,152; -515
19:18:28,156; -523
19:18:28,160; -507
19:18:28,164; -506
19:18:28,168; -522
19:18:28,172; -500
19:18:28,176; -511
19:18:28,180; -501
19:18:28,184; -490
19:18:28,188; -509
19:18:28,191; -508
19:18:28,195; -491
19:18:28,199; -509
19:18:28,203; -507
19:18:28,207; -502
19:18:28,211; -500
19:18:28,215; -521
19:18:28,219; -533
19:18:28,223; -519
19:18:28,227; -531
19:18:28,230; -546
19:18:28,234; -526
19:18:28,238; -535
19:18:28,242; -541
19:18:28,246; -551
19:18:28,250; -545
19:18:28,254; -546
19:18:28,258; -542
19:18:28,262; -553
19:18:28,266; -541
19:18:28,270; -555
19:18:28,273; -530
19:18:28,277; -520
19:18:28,281; -490
19:18:28,285; -502
19:18:28,289; -463
19:18:28,293; -483
19:18:28,297; -426
19:18:28,301; -438
19:18:28,305; -433
19:18:28,309; -400
19:18:28,312; -446
19:18:28,316; -460
19:18:28,320; -464
19:18:28,324; -460
19:18:28,328; -453
19:18:28,332; -446
19:18:28,336; -485
19:18:28,340; -489
19:18:28,344; -518
19:18:28,348; -554
19:18:28,352; -577
19:18:28,355; -588
19:18:28,359; -584
19:18:28,363; -576
19:18:28,367; -598
19:18:28,371; -585
19:18:28,375; -575
19:18:28,379; -607
19:18:28,383; -593
19:18:28,387; -604
19:18:28,391; -593
19:18:28,395; -600
19:18:28,398; -591
19:18:28,402; -581
19:18:28,406; -570
19:18:28,410; -566
19:18:28,414; -596
19:18:28,418; -620
19:18:28,422; -605
19:18:28,426; -546
19:18:28,430; -355
19:18:28,434; 12
19:18:28,438; 552
19:18:28,441; 1217
19:18:28,445; 1905
19:18:28,449; 2300
19:18:28,453; 2428
19:18:28,457; 2328
19:18:28,461; 1856
19:18:28,465; 979
19:18:28,469; -56
19:18:28,473; -559
19:18:28,477; -759
19:18:28,480; -911
19:18:28,484; -721
19:18:28,488; -386
19:18:28,492; -366
19:18:28,496; -502
19:18:28,500; -554
19:18:28,504; -554
19:18:28,508; -549
19:18:28,512; -499
19:18:28,516; -450
19:18:28,520; -578
19:18:28,523; -569
19:18:28,527; -583
19:18:28,531; -504
19:18:28,535; -535
19:18:28,539; -527
19:18:28,543; -525
19:18:28,547; -540
19:18:28,551; -532
19:18:28,555; -507
19:18:28,559; -547
19:18:28,562; -512
19:18:28,566; -526
19:18:28,570; -516
19:18:28,574; -539
19:18:28,578; -498
19:18:28,582; -482
19:18:28,586; -505
19:18:28,590; -473
19:18:28,594; -454
19:18:28,598; -482
19:18:28,602; -471
19:18:28,605; -456
19:18:28,609; -433
19:18:28,613; -405
19:18:28,617; -427
19:18:28,621; -394
19:18:28,625; -401
19:18:28,629; -378
19:18:28,633; -386
19:18:28,637; -358
19:18:28,641; -326
19:18:28,645; -319
19:18:28,648; -264
19:18:28,652; -251
19:18:28,656; -222
19:18:28,660; -166
19:18:28,664; -119
19:18:28,668; -117
19:18:28,672; -100
19:18:28,676; -78
19:18:28,680; -48
19:18:28,684; -39
19:18:28,688; 11
19:18:28,691; 54
19:18:28,695; 81
19:18:28,699; 86
19:18:28,703; 117
19:18:28,707; 106
19:18:28,711; 116
19:18:28,715; 118
19:18:28,719; 59
19:18:28,723; 58
19:18:28,727; -36
19:18:28,730; -90
19:18:28,734; -112
19:18:28,738; -183
19:18:28,742; -214
19:18:28,746; -270
19:18:28,750; -312
19:18:28,754; -331
19:18:28,758; -349
19:18:28,762; -392
19:18:28,766; -402
19:18:28,770; -422
19:18:28,773; -425
19:18:28,777; -466
19:18:28,781; -467
19:18:28,785; -486
19:18:28,789; -489
19:18:28,793; -477
19:18:28,797; -502
19:18:28,801; -500
19:18:28,805; -468
19:18:28,809; -480
19:18:28,813; -504
19:18:28,816; -512
19:18:28,820; -507
19:18:28,824; -507
19:18:28,828; -499
19:18:28,832; -465
19:18:28,836; -483
19:18:28,840; -443
19:18:28,844; -461
19:18:28,848; -483
19:18:28,852; -457
19:18:28,855; -478
19:18:28,859; -445
19:18:28,863; -446
19:18:28,867; -412
19:18:28,871; -424
19:18:28,875; -402
19:18:28,879; -436
19:18:28,883; -400
19:18:28,887; -435
19:18:28,891; -485
19:18:28,895; -453
19:18:28,898; -438
19:18:28,902; -480
19:18:28,906; -455
19:18:28,910; -447
19:18:28,914; -432
19:18:28,918; -436
19:18:28,922; -468
19:18:28,926; -461
19:18:28,930; -469
19:18:28,934; -473
19:18:28,938; -456
19:18:28,941; -491
19:18:28,945; -464
19:18:28,949; -501
19:18:28,953; -503
19:18:28,957; -493
19:18:28,961; -486
19:18:28,965; -519
19:18:28,969; -461
19:18:28,973; -503
19:18:28,977; -470
19:18:28,980; -483
19:18:28,984; -438
19:18:28,988; -399
19:18:28,992; -409
19:18:28,996; -382
19:18:29,000; -399
19:18:29,004; -388
19:18:29,008; -388
19:18:29,012; -401
19:18:29,016; -379
19:18:29,020; -361
19:18:29,023; -384
19:18:29,027; -379
19:18:29,031; -384
19:18:29,035; -418
19:18:29,039; -421
19:18:29,043; -433
19:18:29,047; -419
19:18:29,051; -450
19:18:29,055; -468
19:18:29,059; -486
19:18:29,063; -537
19:18:29,066; -547
19:18:29,070; -537
19:18:29,074; -545
19:18:29,078; -540
19:18:29,082; -543
19:18:29,086; -526
19:18:29,090; -565
19:18:29,094; -579
19:18:29,098; -576
19:18:29,102; -538
19:18:29,105; -545
19:18:29,109; -527
19:18:29,113; -533
19:18:29,117; -514
19:18:29,121; -540
19:18:29,125; -598
19:18:29,129; -571
19:18:29,133; -529
19:18:29,137; -467
19:18:29,141; -307
19:18:29,145; 61
19:18:29,148; 847
19:18:29,152; 1647
19:18:29,156; 2125
19:18:29,160; 2523
19:18:29,164; 2588
19:18:29,168; 2289
19:18:29,172; 1408
19:18:29,176; 700
19:18:29,180; -206
19:18:29,184; -506
19:18:29,188; -721
19:18:29,191; -732
19:18:29,195; -479
19:18:29,199; -371
19:18:29,203; -276
19:18:29,207; -474
19:18:29,211; -592
19:18:29,215; -503
19:18:29,219; -513
19:18:29,223; -453
19:18:29,227; -525
19:18:29,230; -571
19:18:29,234; -533
19:18:29,238; -509
19:18:29,242; -483
19:18:29,246; -496
19:18:29,250; -500
19:18:29,254; -522
19:18:29,258; -558
19:18:29,262; -522
19:18:29,266; -515
19:18:29,270; -536
19:18:29,273; -498
19:18:29,277; -501
19:18:29,281; -452
19:18:29,285; -505
19:18:29,289; -473
19:18:29,293; -439
19:18:29,297; -498
19:18:29,301; -489
19:18:29,305; -453
19:18:29,309; -462
19:18:29,312; -455
19:18:29,316; -421
19:18:29,320; -437
19:18:29,324; -423
19:18:29,328; -416
19:18:29,332; -416
19:18:29,336; -401
19:18:29,340; -380
19:18:29,344; -384
19:18:29,348; -345
19:18:29,352; -335
19:18:29,355; -317
19:18:29,359; -288
19:18:29,363; -251
19:18:29,367; -236
19:18:29,371; -204
19:18:29,375; -117
19:18:29,379; -103
19:18:29,383; -66
19:18:29,387; -16
19:18:29,391; 42
19:18:29,395; 93
19:18:29,398; 110
19:18:29,402; 132
19:18:29,406; 188
19:18:29,410; 160
19:18:29,414; 178
19:18:29,418; 159
19:18:29,422; 163
19:18:29,426; 152
19:18:29,430; 106
19:18:29,434; 49
19:18:29,438; -18
19:18:29,441; -63
19:18:29,445; -107
19:18:29,449; -180
19:18:29,453; -211
19:18:29,457; -244
19:18:29,461; -263
19:18:29,465; -344
19:18:29,469; -368
19:18:29,473; -386
19:18:29,477; -413
19:18:29,480; -366
19:18:29,484; -384
19:18:29,488; -442
19:18:29,492; -421
19:18:29,496; -466
19:18:29,500; -480
19:18:29,504; -480
19:18:29,508; -439
19:18:29,512; -466
19:18:29,516; -443
19:18:29,520; -473
19:18:29,523; -472
19:18:29,527; -451
19:18:29,531; -451
19:18:29,535; -455
19:18:29,539; -423
19:18:29,543; -455
19:18:29,547; -470
19:18:29,551; -460
19:18:29,555; -450
19:18:29,559; -463
19:18:29,562; -468
19:18:29,566; -454
19:18:29,570; -441
19:18:29,574; -434
19:18:29,578; -440
19:18:29,582; -426
19:18:29,586; -430
19:18:29,590; -443
19:18:29,594; -422
19:18:29,598; -439
19:18:29,602; -424
19:18:29,605; -424
19:18:29,609; -424
19:18:29,613; -394
19:18:29,617; -459
19:18:29,621; -414
19:18:29,625; -461
19:18:29,629; -441
19:18:29,633; -457
19:18:29,637; -476
19:18:29,641; -432
19:18:29,645; -448
19:18:29,648; -450
19:18:29,652; -451
19:18:29,656; -483
19:18:29,660; -477
19:18:29,664; -515
19:18:29,668; -499
19:18:29,672; -492
19:18:29,676; -515
19:18:29,680; -489
19:18:29,684; -499
19:18:29,688; -496
19:18:29,691; -506
19:18:29,695; -516
19:18:29,699; -486
19:18:29,703; -452
19:18:29,707; -454
19:18:29,711; -465
19:18:29,715; -426
19:18:29,719; -452
19:18:29,723; -482
19:18:29,727; -449
19:18:29,730; -479
19:18:29,734; -468
19:18:29,738; -457
19:18:29,742; -478
19:18:29,746; -477
19:18:29,750; -484
19:18:29,754; -477
19:18:29,758; -464
19:18:29,762; -491
19:18:29,766; -468
19:18:29,770; -453
19:18:29,773; -481
19:18:29,777; -482
19:18:29,781; -480
19:18:29,785; -486
19:18:29,789; -453
19:18:29,793; -487
19:18:29,797; -444
19:18:29,801; -474
19:18:29,805; -475
19:18:29,809; -472
19:18:29,812; -492
19:18:29,816; -485
19:18:29,820; -468
19:18:29,824; -469
19:18:29,828; -459
19:18:29,832; -471
19:18:29,836; -470
19:18:29,840; -455
19:18:29,844; -452
19:18:29,848; -425
19:18:29,852; -384
19:18:29,855; -399
19:18:29,859; -366
19:18:29,863; -354
19:18:29,867; -387
19:18:29,871; -326
19:18:29,875; -319
19:18:29,879; -325
19:18:29,883; -340
19:18:29,887; -350
19:18:29,891; -343
19:18:29,895; -379
19:18:29,898; -368
19:18:29,902; -374
19:18:29,906; -385
19:18:29,910; -398
19:18:29,914; -409
19:18:29,918; -442
19:18:29,922; -455
19:18:29,926; -477
19:18:29,930; -492
19:18:29,934; -500
19:18:29,938; -503
19:18:29,941; -487
19:18:29,945; -481
19:18:29,949; -485
19:18:29,953; -479
19:18:29,957; -485
19:18:29,961; -493
19:18:29,965; -485
19:18:29,969; -481
19:18:29,973; -480
19:18:29,977; -480
19:18:29,980; -486
19:18:29,984; -511
19:18:29,988; -494
19:18:29,992; -465
19:18:29,996; -407
19:18:30,000; -282
19:18:30,004; -10
19:18:30,008; 575
19:18:30,012; 1502
19:18:30,016; 1962
19:18:30,020; 2381
19:18:30,023; 2503
19:18:30,027; 2205
19:18:30,031; 1473
19:18:30,035; 708
19:18:30,039; 9
19:18:30,043; -373
19:18:30,047; -521
19:18:30,051; -583
19:18:30,055; -432
19:18:30,059; -338
19:18:30,062; -234
19:18:30,066; -373
19:18:30,070; -478
19:18:30,074; -502
19:18:30,078; -429
19:18:30,082; -403
19:18:30,086; -451
19:18:30,090; -469
19:18:30,094; -436
19:18:30,098; -426
19:18:30,102; -414
19:18:30,105; -458
19:18:30,109; -419
19:18:30,113; -419
19:18:30,117; -450
19:18:30,121; -433
19:18:30,125; -413
19:18:30,129; -419
19:18:30,133; -426
19:18:30,137; -422
19:18:30,141; -392
19:18:30,145; -388
19:18:30,148; -379
19:18:30,152; -382
19:18:30,156; -359
19:18:30,160; -383
19:18:30,164; -370
19:18:30,168; -356
19:18:30,172; -344
19:18:30,176; -328
19:18:30,180; -309
19:18:30,184; -293
19:18:30,188; -317
19:18:30,191; -295
19:18:30,195; -285
19:18:30,199; -275
19:18:30,203; -250
19:18:30,207; -209
19:18:30,211; -191
19:18:30,215; -179
19:18:30,219; -151
19:18:30,223; -124
19:18:30,227; -101
19:18:30,230; -76
19:18:30,234; -24
19:18:30,238; 16
19:18:30,242; 32
19:18:30,246; 71
19:18:30,250; 107
19:18:30,254; 104
19:18:30,258; 150
19:18:30,262; 186
19:18:30,266; 213
19:18:30,270; 246
19:18:30,273; 256
19:18:30,277; 264
19:18:30,281; 268
19:18:30,285; 254
19:18:30,289; 226
19:18:30,293; 209
19:18:30,297; 186
19:18:30,301; 123
19:18:30,305; 97
19:18:30,309; 58
19:18:30,313; -8
19:18:30,316; -46
19:18:30,320; -67
19:18:30,324; -139
19:18:30,328; -155
19:18:30,332; -191
19:18:30,336; -222
19:18:30,340; -222
19:18:30,344; -260
19:18:30,348; -260
19:18:30,352; -264
19:18:30,355; -299
19:18:30,359; -296
19:18:30,363; -291
19:18:30,367; -305
19:18:30,371; -303
19:18:30,375; -309
19:18:30,379; -313
19:18:30,383; -329
19:18:30,387; -321
19:18:30,391; -297
19:18:30,395; -317
19:18:30,398; -294
19:18:30,402; -284
19:18:30,406; -300
19:18:30,410; -299
19:18:30,414; -294
19:18:30,418; -293
19:18:30,422; -276
19:18:30,426; -287
19:18:30,430; -264
19:18:30,434; -259
19:18:30,438; -262
19:18:30,441; -262
19:18:30,445; -275
19:18:30,449; -269
19:18:30,453; -261
19:18:30,457; -255
19:18:30,461; -260
19:18:30,465; -254
19:18:30,469; -272
19:18:30,473; -250
19:18:30,477; -276
19:18:30,480; -274
19:18:30,484; -243
19:18:30,488; -277
19:18:30,492; -290
19:18:30,496; -294
19:18:30,500; -308
19:18:30,504; -303
19:18:30,508; -299
19:18:30,512; -311
19:18:30,516; -315
19:18:30,520; -311
19:18:30,523; -312
19:18:30,527; -330
19:18:30,531; -328
19:18:30,535; -316
19:18:30,539; -323
19:18:30,543; -343
19:18:30,547; -320
19:18:30,551; -318
19:18:30,555; -352
19:18:30,559; -341
19:18:30,563; -361
19:18:30,566; -361
19:18:30,570; -344
19:18:30,574; -347
19:18:30,578; -347
19:18:30,582; -347
19:18:30,586; -356
19:18:30,590; -352
19:18:30,594; -355
19:18:30,598; -358
19:18:30,602; -346
19:18:30,605; -345
19:18:30,609; -340
19:18:30,613; -348
19:18:30,617; -343
19:18:30,621; -355
19:18:30,625; -369
19:18:30,629; -358
19:18:30,633; -339
19:18:30,637; -350
19:18:30,641; -330
19:18:30,645; -331
19:18:30,648; -350
19:18:30,652; -357
19:18:30,656; -340
19:18:30,660; -333
19:18:30,664; -339
19:18:30,668; -333
19:18:30,672; -315
19:18:30,676; -342
19:18:30,680; -317
19:18:30,684; -332
19:18:30,688; -339
19:18:30,691; -317
19:18:30,695; -333
19:18:30,699; -330
19:18:30,703; -331
19:18:30,707; -320
19:18:30,711; -328
19:18:30,715; -326
19:18:30,719; -316
19:18:30,723; -316
19:18:30,727; -313
19:18:30,730; -326
19:18:30,734; -319
19:18:30,738; -315
19:18:30,742; -320
19:18:30,746; -316
19:18:30,750; -313
19:18:30,754; -303
19:18:30,758; -307
19:18:30,762; -314
19:18:30,766; -312
19:18:30,770; -320
19:18:30,773; -314
19:18:30,777; -317
19:18:30,781; -309
19:18:30,785; -302
19:18:30,789; -304
19:18:30,793; -305
19:18:30,797; -325
19:18:30,801; -309
19:18:30,805; -308
19:18:30,809; -308
19:18:30,813; -294
19:18:30,816; -301
19:18:30,820; -304
19:18:30,824; -300
19:18:30,828; -278
19:18:30,832; -301
19:18:30,836; -301
19:18:30,840; -286
19:18:30,844; -301
19:18:30,848; -324
19:18:30,852; -304
19:18:30,855; -306
19:18:30,859; -300
19:18:30,863; -306
19:18:30,867; -304
19:18:30,871; -294
19:18:30,875; -307
19:18:30,879; -303
19:18:30,883; -294
19:18:30,887; -313
19:18:30,891; -293
19:18:30,895; -300
19:18:30,898; -302
19:18:30,902; -299
19:18:30,906; -292
19:18:30,910; -281
19:18:30,914; -292
19:18:30,918; -273
19:18:30,922; -227
19:18:30,926; -236
19:18:30,930; -226
19:18:30,934; -200
19:18:30,938; -201
19:18:30,941; -181
19:18:30,945; -173
19:18:30,949; -157
19:18:30,953; -151
19:18:30,957; -169
19:18:30,961; -174
19:18:30,965; -207
19:18:30,969; -208
19:18:30,973; -189
19:18:30,977; -207
19:18:30,980; -227
19:18:30,984; -226
19:18:30,988; -239
19:18:30,992; -267
19:18:30,996; -278
19:18:31,000; -299
19:18:31,004; -322
19:18:31,008; -323
19:18:31,012; -340
19:18:31,016; -305
19:18:31,020; -316
19:18:31,023; -294
19:18:31,027; -302
19:18:31,031; -312
19:18:31,035; -316
19:18:31,039; -312
19:18:31,043; -316
19:18:31,047; -296
19:18:31,051; -320
19:18:31,055; -357
19:18:31,059; -308
19:18:31,062; -277
19:18:31,066; -145
19:18:31,070; 155
19:18:31,074; 598
19:18:31,078; 1247
19:18:31,082; 1733
19:18:31,086; 2291
19:18:31,090; 2377
19:18:31,094; 2418
19:18:31,098; 2081
19:18:31,102; 1235
19:18:31,105; 457
19:18:31,109; -167
19:18:31,113; -348
19:18:31,117; -516
19:18:31,121; -384
19:18:31,125; -103
19:18:31,129; -65
19:18:31,133; -173
19:18:31,137; -331
19:18:31,141; -325
19:18:31,145; -343
19:18:31,148; -244
19:18:31,152; -280
19:18:31,156; -271
19:18:31,160; -327
19:18:31,164; -287
19:18:31,168; -299
19:18:31,172; -310
19:18:31,176; -299
19:18:31,180; -302
19:18:31,184; -288
19:18:31,188; -285
19:18:31,191; -281
19:18:31,195; -273
19:18:31,199; -283
19:18:31,203; -258
19:18:31,207; -293
19:18:31,211; -276
19:18:31,215; -261
19:18:31,219; -267
19:18:31,223; -252
19:18:31,227; -249
19:18:31,230; -242
19:18:31,234; -252
19:18:31,238; -244
19:18:31,242; -239
19:18:31,246; -214
19:18:31,250; -227
19:18:31,254; -192
19:18:31,258; -203
19:18:31,262; -190
19:18:31,266; -185
19:18:31,270; -177
19:18:31,273; -160
19:18:31,277; -149
19:18:31,281; -137
19:18:31,285; -110
19:18:31,289; -84
19:18:31,293; -81
19:18:31,297; -58
19:18:31,301; -41
19:18:31,305; -18
19:18:31,309; 7
19:18:31,312; 30
19:18:31,316; 60
19:18:31,320; 82
19:18:31,324; 96
19:18:31,328; 122
19:18:31,332; 152
19:18:31,336; 167
19:18:31,340; 187
19:18:31,344; 199
19:18:31,348; 227
19:18:31,352; 222
19:18:31,355; 234
19:18:31,359; 252
19:18:31,363; 246
19:18:31,367; 218
19:18:31,371; 222
19:18:31,375; 176
19:18:31,379; 122
19:18:31,383; 88
19:18:31,387; 42
19:18:31,391; 19
19:18:31,395; -14
19:18:31,398; -41
19:18:31,402; -73
19:18:31,406; -114
19:18:31,410; -137
19:18:31,414; -172
19:18:31,418; -192
19:18:31,422; -199
19:18:31,426; -216
19:18:31,430; -222
19:18:31,434; -231
19:18:31,438; -229
19:18:31,441; -233
19:18:31,445; -245
19:18:31,449; -262
19:18:31,453; -245
19:18:31,457; -245
19:18:31,461; -260
19:18:31,465; -242
19:18:31,469; -237
19:18:31,473; -228
19:18:31,477; -223
19:18:31,480; -228
19:18:31,484; -232
19:18:31,488; -220
19:18:31,492; -227
19:18:31,496; -250
19:18:31,500; -230
19:18:31,504; -202
19:18:31,508; -231
19:18:31,512; -227
19:18:31,516; -228
19:18:31,520; -220
19:18:31,523; -226
19:18:31,527; -232
19:18:31,531; -239
19:18:31,535; -233
19:18:31,539; -237
19:18:31,543; -244
19:18:31,547; -238
19:18:31,551; -241
19:18:31,555; -242
19:18:31,559; -271
19:18:31,562; -272
19:18:31,566; -264
19:18:31,570; -282
19:18:31,574; -297
19:18:31,578; -289
19:18:31,582; -292
19:18:31,586; -288
19:18:31,590; -295
19:18:31,594; -326
19:18:31,598; -316
19:18:31,602; -308
19:18:31,605; -334
19:18:31,609; -336
19:18:31,613; -310
19:18:31,617; -310
19:18:31,621; -325
19:18:31,625; -325
19:18:31,629; -322
19:18:31,633; -328
19:18:31,637; -325
19:18:31,641; -333
19:18:31,645; -324
19:18:31,648; -331
19:18:31,652; -333
19:18:31,656; -333
19:18:31,660; -342
19:18:31,664; -345
19:18:31,668; -339
19:18:31,672; -340
19:18:31,676; -343
19:18:31,680; -341
19:18:31,684; -342
19:18:31,688; -341
19:18:31,691; -339
19:18:31,695; -325
19:18:31,699; -336
19:18:31,703; -348
19:18:31,707; -352
19:18:31,711; -356
19:18:31,715; -357
19:18:31,719; -349
19:18:31,723; -352
19:18:31,727; -326
19:18:31,730; -333
19:18:31,734; -354
19:18:31,738; -337
19:18:31,742; -345
19:18:31,746; -350
19:18:31,750; -351
19:18:31,754; -353
19:18:31,758; -345
19:18:31,762; -356
19:18:31,766; -352
19:18:31,770; -344
19:18:31,773; -353
19:18:31,777; -337
19:18:31,781; -338
19:18:31,785; -338
19:18:31,789; -344
19:18:31,793; -343
19:18:31,797; -349
19:18:31,801; -343
19:18:31,805; -341
19:18:31,809; -356
19:18:31,812; -331
19:18:31,816; -335
19:18:31,820; -346
19:18:31,824; -339
19:18:31,828; -351
19:18:31,832; -348
19:18:31,836; -344
19:18:31,840; -351
19:18:31,844; -353
19:18:31,848; -345
19:18:31,852; -340
19:18:31,855; -354
19:18:31,859; -339
19:18:31,863; -322
19:18:31,867; -285
19:18:31,871; -285
19:18:31,875; -279
19:18:31,879; -244
19:18:31,883; -258
19:18:31,887; -226
19:18:31,891; -200
19:18:31,895; -206
19:18:31,898; -197
19:18:31,902; -234
19:18:31,906; -243
19:18:31,910; -256
19:18:31,914; -265
19:18:31,918; -237
19:18:31,922; -244
19:18:31,926; -302
19:18:31,930; -288
19:18:31,934; -314
19:18:31,938; -350
19:18:31,941; -349
19:18:31,945; -359
19:18:31,949; -375
19:18:31,953; -360
19:18:31,957; -379
19:18:31,961; -362
19:18:31,965; -364
19:18:31,969; -355
19:18:31,973; -365
19:18:31,977; -370
19:18:31,980; -358
19:18:31,984; -366
19:18:31,988; -361
19:18:31,992; -362
19:18:31,996; -373
19:18:32,000; -401
19:18:32,004; -375
19:18:32,008; -323
19:18:32,012; -217
19:18:32,016; 7
19:18:32,020; 425
19:18:32,023; 846
19:18:32,027; 1512
19:18:32,031; 1994
19:18:32,035; 2205
19:18:32,039; 2274
19:18:32,043; 2006
19:18:32,047; 1181
19:18:32,051; 369
19:18:32,055; -287
19:18:32,059; -464
19:18:32,063; -609
19:18:32,066; -467
19:18:32,070; -195
19:18:32,074; -169
19:18:32,078; -166
19:18:32,082; -330
19:18:32,086; -380
19:18:32,090; -278
19:18:32,094; -302
19:18:32,098; -279
19:18:32,102; -281
19:18:32,105; -312
19:18:32,109; -303
19:18:32,113; -313
19:18:32,117; -313
19:18:32,121; -325
19:18:32,125; -306
19:18:32,129; -328
19:18:32,133; -317
19:18:32,137; -296
19:18:32,141; -320
19:18:32,145; -326
19:18:32,148; -285
19:18:32,152; -303
19:18:32,156; -269
19:18:32,160; -287
19:18:32,164; -289
19:18:32,168; -273
19:18:32,172; -282
19:18:32,176; -267
19:18:32,180; -263
19:18:32,184; -265
19:18:32,188; -239
19:18:32,191; -233
19:18:32,195; -238
19:18:32,199; -218
19:18:32,203; -218
19:18:32,207; -214
19:18:32,211; -196
19:18:32,215; -199
19:18:32,219; -169
19:18:32,223; -169
19:18:32,227; -144
19:18:32,230; -123
19:18:32,234; -120
19:18:32,238; -76
19:18:32,242; -63
19:18:32,246; -51
19:18:32,250; -33
19:18:32,254; -4
19:18:32,258; 31
19:18:32,262; 29
19:18:32,266; 78
19:18:32,270; 118
19:18:32,273; 111
19:18:32,277; 129
19:18:32,281; 172
19:18:32,285; 182
19:18:32,289; 187
19:18:32,293; 220
19:18:32,297; 230
19:18:32,301; 238
19:18:32,305; 224
19:18:32,309; 222
19:18:32,313; 203
19:18:32,316; 167
19:18:32,320; 126
19:18:32,324; 85
19:18:32,328; 67
19:18:32,332; 17
19:18:32,336; -39
19:18:32,340; -39
19:18:32,344; -92
19:18:32,348; -132
19:18:32,352; -169
19:18:32,355; -189
19:18:32,359; -191
19:18:32,363; -220
19:18:32,367; -247
19:18:32,371; -231
19:18:32,375; -257
19:18:32,379; -268
19:18:32,383; -279
19:18:32,387; -282
19:18:32,391; -269
19:18:32,395; -277
19:18:32,398; -286
19:18:32,402; -280
19:18:32,406; -275
19:18:32,410; -285
19:18:32,414; -289
19:18:32,418; -269
19:18:32,422; -248
19:18:32,426; -277
19:18:32,430; -260
19:18:32,434; -258
19:18:32,438; -255
19:18:32,441; -268
19:18:32,445; -266
19:18:32,449; -243
19:18:32,453; -245
19:18:32,457; -253
19:18:32,461; -244
19:18:32,465; -234
19:18:32,469; -248
19:18:32,473; -246
19:18:32,477; -262
19:18:32,480; -252
19:18:32,484; -254
19:18:32,488; -248
19:18:32,492; -256
19:18:32,496; -254
19:18:32,500; -240
19:18:32,504; -250
19:18:32,508; -258
19:18:32,512; -260
19:18:32,516; -263
19:18:32,520; -261
19:18:32,523; -288
19:18:32,527; -279
19:18:32,531; -281
19:18:32,535; -287
19:18:32,539; -292
19:18:32,543; -293
19:18:32,547; -278
19:18:32,551; -278
19:18:32,555; -289
19:18:32,559; -299
19:18:32,562; -287
19:18:32,566; -288
19:18:32,570; -288
19:18:32,574; -295
19:18:32,578; -290
19:18:32,582; -294
19:18:32,586; -306
19:18:32,590; -305
19:18:32,594; -293
19:18:32,598; -285
19:18:32,602; -309
19:18:32,605; -291
19:18:32,609; -292
19:18:32,613; -305
19:18:32,617; -304
19:18:32,621; -311
19:18:32,625; -294
19:18:32,629; -302
19:18:32,633; -299
19:18:32,637; -280
19:18:32,641; -293
19:18:32,645; -299
19:18:32,648; -303
19:18:32,652; -291
19:18:32,656; -294
19:18:32,660; -289
19:18:32,664; -296
19:18:32,668; -306
19:18:32,672; -306
19:18:32,676; -306
19:18:32,680; -306
19:18:32,684; -297
19:18:32,688; -280
19:18:32,691; -303
19:18:32,695; -305
19:18:32,699; -297
19:18:32,703; -289
19:18:32,707; -302
19:18:32,711; -298
19:18:32,715; -292
19:18:32,719; -283
19:18:32,723; -290
19:18:32,727; -298
19:18:32,730; -277
19:18:32,734; -304
19:18:32,738; -303
19:18:32,742; -286
19:18:32,746; -288
19:18:32,750; -288
19:18:32,754; -284
19:18:32,758; -290
19:18:32,762; -308
19:18:32,766; -292
19:18:32,770; -305
19:18:32,773; -306
19:18:32,777; -302
19:18:32,781; -293
19:18:32,785; -297
19:18:32,789; -282
19:18:32,793; -292
19:18:32,797; -261
19:18:32,801; -239
19:18:32,805; -246
19:18:32,809; -228
19:18:32,812; -202
19:18:32,816; -186
19:18:32,820; -180
19:18:32,824; -161
19:18:32,828; -164
19:18:32,832; -157
19:18:32,836; -171
19:18:32,840; -189
19:18:32,844; -204
19:18:32,848; -211
19:18:32,852; -200
19:18:32,855; -240
19:18:32,859; -228
19:18:32,863; -235
19:18:32,867; -259
19:18:32,871; -274
19:18:32,875; -294
19:18:32,879; -293
19:18:32,883; -309
19:18:32,887; -309
19:18:32,891; -331
19:18:32,895; -308
19:18:32,898; -311
19:18:32,902; -335
19:18:32,906; -326
19:18:32,910; -324
19:18:32,914; -308
19:18:32,918; -318
19:18:32,922; -329
19:18:32,926; -323
19:18:32,930; -314
19:18:32,934; -362
19:18:32,938; -348
19:18:32,941; -301
19:18:32,945; -219
19:18:32,949; -71
19:18:32,953; 199
19:18:32,957; 730
19:18:32,961; 1261
19:18:32,965; 1852
19:18:32,969; 2222
19:18:32,973; 2448
19:18:32,977; 2227
19:18:32,980; 1679
19:18:32,984; 864
19:18:32,988; 70
19:18:32,992; -388
19:18:32,996; -556
19:18:33,000; -455
19:18:33,004; -291
19:18:33,008; -149
19:18:33,012; -124
19:18:33,016; -175
19:18:33,020; -355
19:18:33,023; -299
19:18:33,027; -263
19:18:33,031; -247
19:18:33,035; -244
19:18:33,039; -280
19:18:33,043; -316
19:18:33,047; -243
19:18:33,051; -242
19:18:33,055; -271
19:18:33,059; -242
19:18:33,062; -247
19:18:33,066; -240
19:18:33,070; -221
19:18:33,074; -232
19:18:33,078; -223
19:18:33,082; -235
19:18:33,086; -213
19:18:33,090; -213
19:18:33,094; -210
19:18:33,098; -180
19:18:33,102; -199
19:18:33,105; -202
19:18:33,109; -169
19:18:33,113; -174
19:18:33,117; -160
19:18:33,121; -162
19:18:33,125; -147
19:18:33,129; -144
19:18:33,133; -135
19:18:33,137; -132
19:18:33,141; -109
19:18:33,145; -100
19:18:33,148; -72
19:18:33,152; -65
19:18:33,156; -60
19:18:33,160; -36
19:18:33,164; -14
19:18:33,168; -11
19:18:33,172; 25
19:18:33,176; 39
19:18:33,180; 76
19:18:33,184; 108
19:18:33,188; 123
19:18:33,191; 158
19:18:33,195; 185
19:18:33,199; 211
19:18:33,203; 248
19:18:33,207; 263
19:18:33,211; 320
19:18:33,215; 343
19:18:33,219; 366
19:18:33,223; 367
19:18:33,227; 410
19:18:33,230; 427
19:18:33,234; 433
19:18:33,238; 444
19:18:33,242; 422
19:18:33,246; 412
19:18:33,250; 378
19:18:33,254; 333
19:18:33,258; 303
19:18:33,262; 281
19:18:33,266; 247
19:18:33,270; 200
19:18:33,273; 147
19:18:33,277; 122
19:18:33,281; 83
19:18:33,285; 44
19:18:33,289; 10
19:18:33,293; -13
19:18:33,297; -14
19:18:33,301; -18
19:18:33,305; -55
19:18:33,309; -54
19:18:33,312; -89
19:18:33,316; -68
19:18:33,320; -80
19:18:33,324; -82
19:18:33,328; -57
19:18:33,332; -59
19:18:33,336; -56
19:18:33,340; -49
19:18:33,344; -90
19:18:33,348; -58
19:18:33,352; -35
19:18:33,355; -59
19:18:33,359; -20
19:18:33,363; -30
19:18:33,367; 4
19:18:33,371; -14
19:18:33,375; -13
19:18:33,379; 21
19:18:33,383; -16
19:18:33,387; -7
19:18:33,391; 19
19:18:33,395; 9
19:18:33,398; 14
19:18:33,402; 26
19:18:33,406; 24
19:18:33,410; 47
19:18:33,414; 14
19:18:33,418; 16
19:18:33,422; 35
19:18:33,426; 2
19:18:33,430; 22
19:18:33,434; 7
19:18:33,438; 19
19:18:33,441; 21
19:18:33,445; 27
19:18:33,449; 16
19:18:33,453; 12
19:18:33,457; 4
19:18:33,461; 22
19:18:33,465; 16
19:18:33,469; -9
19:18:33,473; -10
19:18:33,477; 13
19:18:33,480; -22
19:18:33,484; -8
19:18:33,488; 10
19:18:33,492; 32
19:18:33,496; 9
19:18:33,500; 25
19:18:33,504; 16
19:18:33,508; 9
19:18:33,512; 7
19:18:33,516; 12
19:18:33,520; 19
19:18:33,523; 66
19:18:33,527; 80
19:18:33,531; 83
19:18:33,535; 95
19:18:33,539; 111
19:18:33,543; 118
19:18:33,547; 131
19:18:33,551; 163
19:18:33,555; 138
19:18:33,559; 124
19:18:33,563; 117
19:18:33,566; 81
19:18:33,570; 103
19:18:33,574; 105
19:18:33,578; 122
19:18:33,582; 135
19:18:33,586; 123
19:18:33,590; 112
19:18:33,594; 106
19:18:33,598; 76
19:18:33,602; 56
19:18:33,605; 22
19:18:33,609; 39
19:18:33,613; 26
19:18:33,617; 31
19:18:33,621; 49
19:18:33,625; 57
19:18:33,629; 44
19:18:33,633; 55
19:18:33,637; 67
19:18:33,641; 46
19:18:33,645; 50
19:18:33,648; 69
19:18:33,652; 78
19:18:33,656; 84
19:18:33,660; 65
19:18:33,664; 41
19:18:33,668; 41
19:18:33,672; 97
19:18:33,676; 208
19:18:33,680; 497
19:18:33,684; 1153
19:18:33,688; 1647
19:18:33,691; 2393
19:18:33,695; 2922
19:18:33,699; 2986
19:18:33,703; 3034
19:18:33,707; 2604
19:18:33,711; 1776
19:18:33,715; 741
19:18:33,719; 207
19:18:33,723; -11
19:18:33,727; -153
19:18:33,730; -142
19:18:33,734; 219
19:18:33,738; 336
19:18:33,742; 127
19:18:33,746; 135
19:18:33,750; 93
19:18:33,754; 118
19:18:33,758; 186
19:18:33,762; 163
19:18:33,766; 85
19:18:33,770; 92
19:18:33,773; 96
19:18:33,777; 173
19:18:33,781; 86
19:18:33,785; 128
19:18:33,789; 138
19:18:33,793; 136
19:18:33,797; 179
19:18:33,801; 125
19:18:33,805; 154
19:18:33,809; 132
19:18:33,813; 134
19:18:33,816; 174
19:18:33,820; 152
19:18:33,824; 157
19:18:33,828; 183
19:18:33,832; 182
19:18:33,836; 199
19:18:33,840; 169
19:18:33,844; 202
19:18:33,848; 203
19:18:33,852; 218
19:18:33,855; 209
19:18:33,859; 260
19:18:33,863; 265
19:18:33,867; 267
19:18:33,871; 283
19:18:33,875; 278
19:18:33,879; 296
19:18:33,883; 315
19:18:33,887; 333
19:18:33,891; 377
19:18:33,895; 370
19:18:33,898; 405
19:18:33,902; 425
19:18:33,906; 459
19:18:33,910; 481
19:18:33,914; 498
19:18:33,918; 527
19:18:33,922; 593
19:18:33,926; 608
19:18:33,930; 661
19:18:33,934; 695
19:18:33,938; 711
19:18:33,941; 714
19:18:33,945; 754
19:18:33,949; 753
19:18:33,953; 796
19:18:33,957; 817
19:18:33,961; 804
19:18:33,965; 767
19:18:33,969; 737
19:18:33,973; 689
19:18:33,977; 645
19:18:33,980; 588
19:18:33,984; 560
19:18:33,988; 501
19:18:33,992; 437
19:18:33,996; 427
19:18:34,000; 378
19:18:34,004; 379
19:18:34,008; 310
19:18:34,012; 277
19:18:34,016; 245
19:18:34,020; 225
19:18:34,023; 195
19:18:34,027; 169
19:18:34,031; 197
19:18:34,035; 156
19:18:34,039; 153
19:18:34,043; 153
19:18:34,047; 170
19:18:34,051; 139
19:18:34,055; 171
19:18:34,059; 169
19:18:34,062; 140
19:18:34,066; 149
19:18:34,070; 206
19:18:34,074; 118
19:18:34,078; 167
19:18:34,082; 148
19:18:34,086; 144
19:18:34,090; 163
19:18:34,094; 210
19:18:34,098; 170
19:18:34,102; 187
19:18:34,105; 173
19:18:34,109; 168
19:18:34,113; 173
19:18:34,117; 173
19:18:34,121; 193
19:18:34,125; 195
19:18:34,129; 228
19:18:34,133; 205
19:18:34,137; 187
19:18:34,141; 180
19:18:34,145; 212
19:18:34,148; 177
19:18:34,152; 184
19:18:34,156; 186
19:18:34,160; 183
19:18:34,164; 162
19:18:34,168; 157
19:18:34,172; 169
19:18:34,176; 166
19:18:34,180; 175
19:18:34,184; 174
19:18:34,188; 155
19:18:34,191; 140
19:18:34,195; 151
19:18:34,199; 131
19:18:34,203; 112
19:18:34,207; 123
19:18:34,211; 135
19:18:34,215; 112
19:18:34,219; 137
19:18:34,223; 131
19:18:34,227; 113
19:18:34,230; 84
19:18:34,234; 101
19:18:34,238; 89
19:18:34,242; 93
19:18:34,246; 106
19:18:34,250; 124
19:18:34,254; 97
19:18:34,258; 109
19:18:34,262; 125
19:18:34,266; 112
19:18:34,270; 102
19:18:34,273; 121
19:18:34,277; 157
19:18:34,281; 154
19:18:34,285; 195
19:18:34,289; 196
19:18:34,293; 208
19:18:34,297; 225
19:18:34,301; 208
19:18:34,305; 222
19:18:34,309; 240
19:18:34,312; 227
19:18:34,316; 217
19:18:34,320; 200
19:18:34,324; 192
19:18:34,328; 191
19:18:34,332; 174
19:18:34,336; 190
19:18:34,340; 160
19:18:34,344; 132
19:18:34,348; 108
19:18:34,352; 99
19:18:34,355; 54
19:18:34,359; 59
19:18:34,363; 62
19:18:34,367; 56
19:18:34,371; 66
19:18:34,375; 41
19:18:34,379; 57
19:18:34,383; 68
19:18:34,387; 49
19:18:34,391; 47
19:18:34,395; 66
19:18:34,398; 79
19:18:34,402; 53
19:18:34,406; 71
19:18:34,410; 82
19:18:34,414; 59
19:18:34,418; 29
19:18:34,422; 65
19:18:34,426; 156
19:18:34,430; 369
19:18:34,434; 763
19:18:34,438; 1451
19:18:34,441; 1954
19:18:34,445; 2715
19:18:34,449; 3097
19:18:34,453; 3171
19:18:34,457; 3049
19:18:34,461; 2600
19:18:34,465; 1750
19:18:34,469; 714
19:18:34,473; 195
19:18:34,477; -16
19:18:34,480; -162
19:18:34,484; 38
19:18:34,488; 196
19:18:34,492; 394
19:18:34,496; 184
19:18:34,500; 137
19:18:34,504; 67
19:18:34,508; 111
19:18:34,512; 107
19:18:34,516; 100
19:18:34,520; 60
19:18:34,523; 21
19:18:34,527; 128
19:18:34,531; 120
19:18:34,535; 130
19:18:34,539; 117
19:18:34,543; 90
19:18:34,547; 147
19:18:34,551; 99
19:18:34,555; 150
19:18:34,559; 131
19:18:34,562; 144
19:18:34,566; 157
19:18:34,570; 167
19:18:34,574; 148
19:18:34,578; 156
19:18:34,582; 169
19:18:34,586; 141
19:18:34,590; 180
19:18:34,594; 166
19:18:34,598; 202
19:18:34,602; 208
19:18:34,605; 223
19:18:34,609; 272
19:18:34,613; 220
19:18:34,617; 260
19:18:34,621; 276
19:18:34,625; 272
19:18:34,629; 291
19:18:34,633; 323
19:18:34,637; 325
19:18:34,641; 339
19:18:34,645; 358
19:18:34,648; 380
19:18:34,652; 408
19:18:34,656; 450
19:18:34,660; 529
19:18:34,664; 519
19:18:34,668; 605
19:18:34,672; 611
19:18:34,676; 652
19:18:34,680; 672
19:18:34,684; 717
19:18:34,688; 769
19:18:34,691; 788
19:18:34,695; 798
19:18:34,699; 831
19:18:34,703; 836
19:18:34,707; 872
19:18:34,711; 881
19:18:34,715; 825
19:18:34,719; 844
19:18:34,723; 764
19:18:34,727; 695
19:18:34,730; 649
19:18:34,734; 586
19:18:34,738; 593
19:18:34,742; 522
19:18:34,746; 444
19:18:34,750; 410
19:18:34,754; 357
19:18:34,758; 318
19:18:34,762; 257
19:18:34,766; 289
19:18:34,770; 285
19:18:34,773; 235
19:18:34,777; 228
19:18:34,781; 217
19:18:34,785; 194
19:18:34,789; 171
19:18:34,793; 182
19:18:34,797; 223
19:18:34,801; 199
19:18:34,805; 193
19:18:34,809; 140
19:18:34,812; 164
19:18:34,816; 147
19:18:34,820; 122
19:18:34,824; 137
19:18:34,828; 201
19:18:34,832; 150
19:18:34,836; 174
19:18:34,840; 213
19:18:34,844; 162
19:18:34,848; 166
19:18:34,852; 206
19:18:34,855; 176
19:18:34,859; 194
19:18:34,863; 185
19:18:34,867; 217
19:18:34,871; 205
19:18:34,875; 200
19:18:34,879; 209
19:18:34,883; 201
19:18:34,887; 200
19:18:34,891; 230
19:18:34,895; 194
19:18:34,898; 218
19:18:34,902; 238
19:18:34,906; 220
19:18:34,910; 208
19:18:34,914; 210
19:18:34,918; 231
19:18:34,922; 215
19:18:34,926; 170
19:18:34,930; 203
19:18:34,934; 209
19:18:34,938; 155
19:18:34,941; 161
19:18:34,945; 179
19:18:34,949; 167
19:18:34,953; 179
19:18:34,957; 177
19:18:34,961; 145
19:18:34,965; 156
19:18:34,969; 165
19:18:34,973; 128
19:18:34,977; 137
19:18:34,980; 158
19:18:34,984; 161
19:18:34,988; 141
19:18:34,992; 113
19:18:34,996; 130
19:18:35,000; 127
19:18:35,004; 123
19:18:35,008; 140
19:18:35,012; 128
19:18:35,016; 109
19:18:35,020; 135
19:18:35,023; 111
19:18:35,027; 121
19:18:35,031; 116
19:18:35,035; 112
19:18:35,039; 93
19:18:35,043; 84
19:18:35,047; 119
19:18:35,051; 102
19:18:35,055; 114
19:18:35,059; 132
19:18:35,063; 95
19:18:35,066; 120
19:18:35,070; 124
19:18:35,074; 104
19:18:35,078; 147
19:18:35,082; 117
19:18:35,086; 112
19:18:35,090; 130
19:18:35,094; 118
19:18:35,098; 126
19:18:35,102; 108
19:18:35,105; 128
19:18:35,109; 131
19:18:35,113; 128
19:18:35,117; 119
19:18:35,121; 131
19:18:35,125; 124
19:18:35,129; 106
19:18:35,133; 110
19:18:35,137; 106
19:18:35,141; 122
19:18:35,145; 119
19:18:35,148; 106
19:18:35,152; 127
19:18:35,156; 110
19:18:35,160; 127
19:18:35,164; 132
19:18:35,168; 116
19:18:35,172; 121
19:18:35,176; 98
19:18:35,180; 120
19:18:35,184; 101
19:18:35,188; 113
19:18:35,191; 121
19:18:35,195; 126
19:18:35,199; 82
19:18:35,203; 109
19:18:35,207; 91
19:18:35,211; 122
19:18:35,215; 120
19:18:35,219; 121
19:18:35,223; 135
19:18:35,227; 118
19:18:35,230; 118
19:18:35,234; 98
19:18:35,238; 119
19:18:35,242; 127
19:18:35,246; 106
19:18:35,250; 132
19:18:35,254; 135
19:18:35,258; 130
19:18:35,262; 146
19:18:35,266; 183
19:18:35,270; 187
19:18:35,273; 206
19:18:35,277; 227
19:18:35,281; 211
19:18:35,285; 222
19:18:35,289; 250
19:18:35,293; 233
19:18:35,297; 274
19:18:35,301; 263
19:18:35,305; 230
19:18:35,309; 216
19:18:35,313; 210
19:18:35,316; 195
19:18:35,320; 213
19:18:35,324; 179
19:18:35,328; 206
19:18:35,332; 159
19:18:35,336; 134
19:18:35,340; 104
19:18:35,344; 95
19:18:35,348; 113
19:18:35,352; 99
19:18:35,355; 72
19:18:35,359; 108
19:18:35,363; 95
19:18:35,367; 111
19:18:35,371; 84
19:18:35,375; 115
19:18:35,379; 107
19:18:35,383; 105
19:18:35,387; 74
19:18:35,391; 96
19:18:35,395; 85
19:18:35,398; 95
19:18:35,402; 110
19:18:35,406; 182
19:18:35,410; 327
19:18:35,414; 600
19:18:35,418; 1173
19:18:35,422; 1766
19:18:35,426; 2429
19:18:35,430; 2836
19:18:35,434; 3077
19:18:35,438; 2941
19:18:35,441; 2631
19:18:35,445; 1952
19:18:35,449; 1193
19:18:35,453; 417
19:18:35,457; 120
19:18:35,461; 71
19:18:35,465; -92
19:18:35,469; 211
19:18:35,473; 304
19:18:35,477; 323
19:18:35,480; 125
19:18:35,484; 46
19:18:35,488; 69
19:18:35,492; 153
19:18:35,496; 152
19:18:35,500; 143
19:18:35,504; 124
19:18:35,508; 144
19:18:35,512; 132
19:18:35,516; 82
19:18:35,520; 111
19:18:35,523; 116
19:18:35,527; 99
19:18:35,531; 121
19:18:35,535; 120
19:18:35,539; 117
19:18:35,543; 116
19:18:35,547; 117
19:18:35,551; 139
19:18:35,555; 136
19:18:35,559; 127
19:18:35,563; 138
19:18:35,566; 152
19:18:35,570; 161
19:18:35,574; 146
19:18:35,578; 177
19:18:35,582; 161
19:18:35,586; 172
19:18:35,590; 172
19:18:35,594; 203
19:18:35,598; 198
19:18:35,602; 206
19:18:35,605; 219
19:18:35,609; 241
19:18:35,613; 247
19:18:35,617; 256
19:18:35,621; 295
19:18:35,625; 294
19:18:35,629; 319
19:18:35,633; 349
19:18:35,637; 381
19:18:35,641; 425
19:18:35,645; 430
19:18:35,648; 449
19:18:35,652; 497
19:18:35,656; 509
19:18:35,660; 529
19:18:35,664; 585
19:18:35,668; 613
19:18:35,672; 653
19:18:35,676; 665
19:18:35,680; 701
19:18:35,684; 712
19:18:35,688; 749
19:18:35,691; 747
19:18:35,695; 780
19:18:35,699; 770
19:18:35,703; 749
19:18:35,707; 737
19:18:35,711; 700
19:18:35,715; 649
19:18:35,719; 615
19:18:35,723; 575
19:18:35,727; 527
19:18:35,730; 500
19:18:35,734; 446
19:18:35,738; 411
19:18:35,742; 350
19:18:35,746; 333
19:18:35,750; 293
19:18:35,754; 253
19:18:35,758; 249
19:18:35,762; 225
19:18:35,766; 211
19:18:35,770; 184
19:18:35,773; 166
19:18:35,777; 158
19:18:35,781; 149
19:18:35,785; 143
19:18:35,789; 140
19:18:35,793; 137
19:18:35,797; 168
19:18:35,801; 133
19:18:35,805; 144
19:18:35,809; 151
19:18:35,812; 148
19:18:35,816; 152
19:18:35,820; 166
19:18:35,824; 154
19:18:35,828; 181
19:18:35,832; 196
19:18:35,836; 166
19:18:35,840; 183
19:18:35,844; 174
19:18:35,848; 169
19:18:35,852; 168
19:18:35,855; 152
19:18:35,859; 172
19:18:35,863; 173
19:18:35,867; 169
19:18:35,871; 183
19:18:35,875; 162
19:18:35,879; 183
19:18:35,883; 166
19:18:35,887; 161
19:18:35,891; 184
19:18:35,895; 170
19:18:35,898; 165
19:18:35,902; 176
19:18:35,906; 165
19:18:35,910; 157
19:18:35,914; 121
19:18:35,918; 111
19:18:35,922; 120
19:18:35,926; 97
19:18:35,930; 97
19:18:35,934; 99
19:18:35,938; 114
19:18:35,941; 111
19:18:35,945; 98
19:18:35,949; 81
19:18:35,953; 98
19:18:35,957; 86
19:18:35,961; 78
19:18:35,965; 56
19:18:35,969; 65
19:18:35,973; 92
19:18:35,977; 80
19:18:35,980; 49
19:18:35,984; 63
19:18:35,988; 62
19:18:35,992; 45
19:18:35,996; 43
19:18:36,000; 61
19:18:36,004; 67
19:18:36,008; 70
19:18:36,012; 39
19:18:36,016; 33
19:18:36,020; 52
19:18:36,023; 37
19:18:36,027; 37
19:18:36,031; 35
19:18:36,035; 20
19:18:36,039; 50
19:18:36,043; 25
19:18:36,047; 17
19:18:36,051; 39
19:18:36,055; 17
19:18:36,059; 28
19:18:36,062; 20
19:18:36,066; 22
19:18:36,070; 44
19:18:36,074; 16
19:18:36,078; 19
19:18:36,082; 25
19:18:36,086; 28
19:18:36,090; 19
19:18:36,094; 13
19:18:36,098; 29
19:18:36,102; 17
19:18:36,105; 14
19:18:36,109; 24
19:18:36,113; 20
19:18:36,117; 29
19:18:36,121; 26
19:18:36,125; 23
19:18:36,129; 22
19:18:36,133; 28
19:18:36,137; 15
19:18:36,141; 45
19:18:36,145; 23
19:18:36,148; 12
19:18:36,152; 11
19:18:36,156; 10
19:18:36,160; -1
19:18:36,164; -1
19:18:36,168; 6
19:18:36,172; 21
19:18:36,176; 29
19:18:36,180; 3
19:18:36,184; 16
19:18:36,188; 31
19:18:36,191; 7
19:18:36,195; 11
19:18:36,199; 22
19:18:36,203; 9
19:18:36,207; 13
19:18:36,211; 5
19:18:36,215; -2
19:18:36,219; 13
19:18:36,223; 5
19:18:36,227; 4
19:18:36,230; 8
19:18:36,234; 14
19:18:36,238; 18
19:18:36,242; 10
19:18:36,246; 5
19:18:36,250; 22
19:18:36,254; 7
19:18:36,258; 23
19:18:36,262; 1
19:18:36,266; 33
19:18:36,270; -1
19:18:36,273; 10
19:18:36,277; 11
19:18:36,281; -5
19:18:36,285; 10
19:18:36,289; 3
19:18:36,293; 3
19:18:36,297; 5
19:18:36,301; 8
19:18:36,305; 3
19:18:36,309; 14
19:18:36,312; 24
19:18:36,316; 22
19:18:36,320; 17
19:18:36,324; 14
19:18:36,328; 34
19:18:36,332; 25
19:18:36,336; 32
19:18:36,340; 55
19:18:36,344; 31
19:18:36,348; 27
19:18:36,352; 32
19:18:36,355; 26
19:18:36,359; 50
19:18:36,363; 76
19:18:36,367; 79
19:18:36,371; 100
19:18:36,375; 98
19:18:36,379; 118
19:18:36,383; 118
19:18:36,387; 146
19:18:36,391; 166
19:18:36,395; 162
19:18:36,398; 170
19:18:36,402; 140
19:18:36,406; 137
19:18:36,410; 135
19:18:36,414; 123
19:18:36,418; 91
19:18:36,422; 128
19:18:36,426; 118
19:18:36,430; 83
19:18:36,434; 98
19:18:36,438; 61
19:18:36,441; 62
19:18:36,445; 27
19:18:36,449; 17
19:18:36,453; 23
19:18:36,457; 15
19:18:36,461; 17
19:18:36,465; 27
19:18:36,469; 19
19:18:36,473; 13
19:18:36,477; 28
19:18:36,480; 26
19:18:36,484; 3
19:18:36,488; 36
19:18:36,492; 27
19:18:36,496; 8
19:18:36,500; -13
19:18:36,504; 12
19:18:36,508; 63
19:18:36,512; 153
19:18:36,516; 334
19:18:36,520; 727
19:18:36,523; 1360
19:18:36,527; 1841
19:18:36,531; 2407
19:18:36,535; 2769
19:18:36,539; 2656
19:18:36,543; 2405
19:18:36,547; 1788
19:18:36,551; 1036
19:18:36,555; 285
19:18:36,559; 28
19:18:36,562; -127
19:18:36,566; -110
19:18:36,570; 89
19:18:36,574; 159
19:18:36,578; 218
19:18:36,582; 162
19:18:36,586; 70
19:18:36,590; 16
19:18:36,594; 114
19:18:36,598; 98
19:18:36,602; 68
19:18:36,605; 47
19:18:36,609; 78
19:18:36,613; 77
19:18:36,617; 106
19:18:36,621; 79
19:18:36,625; 77
19:18:36,629; 106
19:18:36,633; 105
19:18:36,637; 91
19:18:36,641; 118
19:18:36,645; 107
19:18:36,648; 118
19:18:36,652; 115
19:18:36,656; 133
19:18:36,660; 116
19:18:36,664; 112
19:18:36,668; 128
19:18:36,672; 150
19:18:36,676; 145
19:18:36,680; 128
19:18:36,684; 145
19:18:36,688; 144
19:18:36,691; 153
19:18:36,695; 140
19:18:36,699; 166
19:18:36,703; 186
19:18:36,707; 187
19:18:36,711; 198
19:18:36,715; 211
19:18:36,719; 238
19:18:36,723; 258
19:18:36,727; 260
19:18:36,730; 266
19:18:36,734; 305
19:18:36,738; 321
19:18:36,742; 340
19:18:36,746; 350
19:18:36,750; 406
19:18:36,754; 376
19:18:36,758; 417
19:18:36,762; 434
19:18:36,766; 473
19:18:36,770; 502
19:18:36,773; 527
19:18:36,777; 573
19:18:36,781; 571
19:18:36,785; 578
19:18:36,789; 620
19:18:36,793; 632
19:18:36,797; 677
19:18:36,801; 699
19:18:36,805; 710
19:18:36,809; 700
19:18:36,813; 706
19:18:36,816; 700
19:18:36,820; 683
19:18:36,824; 654
19:18:36,828; 618
19:18:36,832; 595
19:18:36,836; 543
19:18:36,840; 514
19:18:36,844; 479
19:18:36,848; 451
19:18:36,852; 437
19:18:36,855; 395
19:18:36,859; 368
19:18:36,863; 337
19:18:36,867; 314
19:18:36,871; 304
19:18:36,875; 283
19:18:36,879; 281
19:18:36,883; 286
19:18:36,887; 245
19:18:36,891; 281
19:18:36,895; 224
19:18:36,898; 238
19:18:36,902; 251
19:18:36,906; 255
19:18:36,910; 266
19:18:36,914; 257
19:18:36,918; 265
19:18:36,922; 269
19:18:36,926; 274
19:18:36,930; 286
19:18:36,934; 280
19:18:36,938; 297
19:18:36,941; 279
19:18:36,945; 279
19:18:36,949; 284
19:18:36,953; 283
19:18:36,957; 286
19:18:36,961; 276
19:18:36,965; 286
19:18:36,969; 278
19:18:36,973; 248
19:18:36,977; 276
19:18:36,980; 260
19:18:36,984; 251
19:18:36,988; 260
19:18:36,992; 267
19:18:36,996; 255
19:18:37,000; 258
19:18:37,004; 237
19:18:37,008; 232
19:18:37,012; 200
19:18:37,016; 207
19:18:37,020; 206
19:18:37,023; 210
19:18:37,027; 190
19:18:37,031; 196
19:18:37,035; 179
19:18:37,039; 182
19:18:37,043; 144
19:18:37,047; 178
19:18:37,051; 183
19:18:37,055; 155
19:18:37,059; 182
19:18:37,063; 188
19:18:37,066; 143
19:18:37,070; 171
19:18:37,074; 129
19:18:37,078; 162
19:18:37,082; 147
19:18:37,086; 154
19:18:37,090; 140
19:18:37,094; 146
19:18:37,098; 144
19:18:37,102; 123
19:18:37,105; 126
19:18:37,109; 150
19:18:37,113; 167
19:18:37,117; 128
19:18:37,121; 137
19:18:37,125; 142
19:18:37,129; 131
19:18:37,133; 130
19:18:37,137; 126
19:18:37,141; 133
19:18:37,145; 138
19:18:37,148; 138
19:18:37,152; 124
19:18:37,156; 135
19:18:37,160; 142
19:18:37,164; 129
19:18:37,168; 116
19:18:37,172; 140
19:18:37,176; 128
19:18:37,180; 127
19:18:37,184; 128
19:18:37,188; 129
19:18:37,191; 133
19:18:37,195; 130
19:18:37,199; 137
19:18:37,203; 151
19:18:37,207; 125
19:18:37,211; 159
19:18:37,215; 142
19:18:37,219; 132
19:18:37,223; 137
19:18:37,227; 147
19:18:37,230; 132
19:18:37,234; 120
19:18:37,238; 144
19:18:37,242; 133
19:18:37,246; 151
19:18:37,250; 140
19:18:37,254; 137
19:18:37,258; 149
19:18:37,262; 129
19:18:37,266; 144
19:18:37,270; 141
19:18:37,273; 135
19:18:37,277; 143
19:18:37,281; 121
19:18:37,285; 131
19:18:37,289; 123
19:18:37,293; 118
19:18:37,297; 150
19:18:37,301; 127
19:18:37,305; 137
19:18:37,309; 126
19:18:37,312; 130
19:18:37,316; 136
19:18:37,320; 130
19:18:37,324; 114
19:18:37,328; 140
19:18:37,332; 133
19:18:37,336; 136
19:18:37,340; 147
19:18:37,344; 143
19:18:37,348; 181
19:18:37,352; 193
19:18:37,355; 193
19:18:37,359; 226
19:18:37,363; 249
19:18:37,367; 244
19:18:37,371; 284
19:18:37,375; 262
19:18:37,379; 286
19:18:37,383; 264
19:18:37,387; 253
19:18:37,391; 227
19:18:37,395; 229
19:18:37,398; 240
19:18:37,402; 212
19:18:37,406; 209
19:18:37,410; 218
19:18:37,414; 163
19:18:37,418; 155
19:18:37,422; 150
19:18:37,426; 114
19:18:37,430; 122
19:18:37,434; 105
19:18:37,438; 116
19:18:37,441; 114
19:18:37,445; 123
19:18:37,449; 114
19:18:37,453; 122
19:18:37,457; 112
19:18:37,461; 113
19:18:37,465; 117
19:18:37,469; 131
19:18:37,473; 127
19:18:37,477; 118
19:18:37,480; 88
19:18:37,484; 136
19:18:37,488; 176
19:18:37,492; 244
19:18:37,496; 358
19:18:37,500; 600
19:18:37,504; 1128
19:18:37,508; 1825
19:18:37,512; 2207
19:18:37,516; 2699
19:18:37,520; 2754
19:18:37,523; 2559
19:18:37,527; 1804
19:18:37,531; 1135
19:18:37,535; 432
19:18:37,539; 9
19:18:37,543; 10
19:18:37,547; -12
19:18:37,551; 79
19:18:37,555; 294
19:18:37,559; 310
19:18:37,562; 158
19:18:37,566; 99
19:18:37,570; 114
19:18:37,574; 177
19:18:37,578; 175
19:18:37,582; 172
19:18:37,586; 158
19:18:37,590; 174
19:18:37,594; 162
19:18:37,598; 191
19:18:37,602; 175
19:18:37,605; 175
19:18:37,609; 172
19:18:37,613; 170
19:18:37,617; 194
19:18:37,621; 170
19:18:37,625; 180
19:18:37,629; 192
19:18:37,633; 208
19:18:37,637; 199
19:18:37,641; 209
19:18:37,645; 203
19:18:37,648; 210
19:18:37,652; 223
19:18:37,656; 218
19:18:37,660; 232
19:18:37,664; 254
19:18:37,668; 245
19:18:37,672; 260
19:18:37,676; 272
19:18:37,680; 280
19:18:37,684; 288
19:18:37,688; 290
19:18:37,691; 300
19:18:37,695; 315
19:18:37,699; 332
19:18:37,703; 339
19:18:37,707; 359
19:18:37,711; 380
19:18:37,715; 389
19:18:37,719; 409
19:18:37,723; 425
19:18:37,727; 441
19:18:37,730; 454
19:18:37,734; 512
19:18:37,738; 518
19:18:37,742; 546
19:18:37,746; 578
19:18:37,750; 601
19:18:37,754; 621
19:18:37,758; 651
19:18:37,762; 669
19:18:37,766; 712
19:18:37,770; 724
19:18:37,773; 742
19:18:37,777; 774
19:18:37,781; 765
19:18:37,785; 773
19:18:37,789; 773
19:18:37,793; 725
19:18:37,797; 744
19:18:37,801; 674
19:18:37,805; 654
19:18:37,809; 632
19:18:37,812; 576
19:18:37,816; 535
19:18:37,820; 499
19:18:37,824; 457
19:18:37,828; 439
19:18:37,832; 389
19:18:37,836; 356
19:18:37,840; 343
19:18:37,844; 298
19:18:37,848; 281
19:18:37,852; 274
19:18:37,855; 230
19:18:37,859; 250
19:18:37,863; 235
19:18:37,867; 213
19:18:37,871; 219
19:18:37,875; 217
19:18:37,879; 219
19:18:37,883; 208
19:18:37,887; 221
19:18:37,891; 232
19:18:37,895; 220
19:18:37,898; 243
19:18:37,902; 240
19:18:37,906; 223
19:18:37,910; 261
19:18:37,914; 225
19:18:37,918; 213
19:18:37,922; 225
19:18:37,926; 227
19:18:37,930; 233
19:18:37,934; 245
19:18:37,938; 245
19:18:37,941; 229
19:18:37,945; 231
19:18:37,949; 223
19:18:37,953; 232
19:18:37,957; 237
19:18:37,961; 230
19:18:37,965; 230
19:18:37,969; 235
19:18:37,973; 199
19:18:37,977; 203
19:18:37,980; 209
19:18:37,984; 189
19:18:37,988; 182
19:18:37,992; 195
19:18:37,996; 181
19:18:38,000; 196
19:18:38,004; 197
19:18:38,008; 172
19:18:38,012; 166
19:18:38,016; 188
19:18:38,020; 155
19:18:38,023; 138
19:18:38,027; 149
19:18:38,031; 160
19:18:38,035; 143
19:18:38,039; 164
19:18:38,043; 166
19:18:38,047; 123
19:18:38,051; 154
19:18:38,055; 126
19:18:38,059; 139
19:18:38,062; 120
19:18:38,066; 140
19:18:38,070; 134
19:18:38,074; 102
19:18:38,078; 135
19:18:38,082; 133
19:18:38,086; 130
19:18:38,090; 143
19:18:38,094; 122
19:18:38,098; 136
19:18:38,102; 125
19:18:38,105; 112
19:18:38,109; 131
19:18:38,113; 123
19:18:38,117; 109
19:18:38,121; 109
19:18:38,125; 120
19:18:38,129; 116
19:18:38,133; 95
19:18:38,137; 95
19:18:38,141; 116
19:18:38,145; 104
19:18:38,148; 126
19:18:38,152; 103
19:18:38,156; 106
19:18:38,160; 110
19:18:38,164; 102
19:18:38,168; 95
19:18:38,172; 125
19:18:38,176; 115
19:18:38,180; 109
19:18:38,184; 99
19:18:38,188; 95
19:18:38,191; 105
19:18:38,195; 120
19:18:38,199; 96
19:18:38,203; 95
19:18:38,207; 119
19:18:38,211; 111
19:18:38,215; 70
19:18:38,219; 105
19:18:38,223; 101
19:18:38,227; 101
19:18:38,230; 83
19:18:38,234; 97
19:18:38,238; 117
19:18:38,242; 94
19:18:38,246; 92
19:18:38,250; 93
19:18:38,254; 97
19:18:38,258; 112
19:18:38,262; 105
19:18:38,266; 107
19:18:38,270; 146
19:18:38,273; 146
19:18:38,277; 168
19:18:38,281; 167
19:18:38,285; 206
19:18:38,289; 224
19:18:38,293; 194
19:18:38,297; 247
19:18:38,301; 233
19:18:38,305; 209
19:18:38,309; 220
19:18:38,313; 206
19:18:38,316; 205
19:18:38,320; 177
19:18:38,324; 161
19:18:38,328; 176
19:18:38,332; 169
19:18:38,336; 134
19:18:38,340; 122
19:18:38,344; 112
19:18:38,348; 86
19:18:38,352; 64
19:18:38,355; 45
19:18:38,359; 88
19:18:38,363; 64
19:18:38,367; 78
19:18:38,371; 98
19:18:38,375; 79
19:18:38,379; 87
19:18:38,383; 85
19:18:38,387; 69
19:18:38,391; 79
19:18:38,395; 61
19:18:38,398; 78
19:18:38,402; 70
19:18:38,406; 44
19:18:38,410; 105
19:18:38,414; 135
19:18:38,418; 233
19:18:38,422; 511
19:18:38,426; 1041
19:18:38,430; 1560
19:18:38,434; 2232
19:18:38,438; 2592
19:18:38,441; 2826
19:18:38,445; 2716
19:18:38,449; 2194
19:18:38,453; 1388
19:18:38,457; 784
19:18:38,461; 113
19:18:38,465; -141
19:18:38,469; -167
19:18:38,473; -81
19:18:38,477; 73
19:18:38,480; 185
19:18:38,484; 221
19:18:38,488; 145
19:18:38,492; 118
19:18:38,496; 174
19:18:38,500; 188
19:18:38,504; 81
19:18:38,508; 139
19:18:38,512; 101
19:18:38,516; 112
19:18:38,520; 122
19:18:38,523; 111
19:18:38,527; 114
19:18:38,531; 100
19:18:38,535; 98
19:18:38,539; 120
19:18:38,543; 133
19:18:38,547; 147
19:18:38,551; 136
19:18:38,555; 157
19:18:38,559; 169
19:18:38,563; 154
19:18:38,566; 164
19:18:38,570; 154
19:18:38,574; 148
19:18:38,578; 173
19:18:38,582; 166
19:18:38,586; 190
19:18:38,590; 202
19:18:38,594; 215
19:18:38,598; 210
19:18:38,602; 213
19:18:38,605; 212
19:18:38,609; 227
19:18:38,613; 232
19:18:38,617; 249
19:18:38,621; 265
19:18:38,625; 291
19:18:38,629; 277
19:18:38,633; 314
19:18:38,637; 350
19:18:38,641; 355
19:18:38,645; 376
19:18:38,648; 409
19:18:38,652; 417
19:18:38,656; 457
19:18:38,660; 480
19:18:38,664; 529
19:18:38,668; 548
19:18:38,672; 573
19:18:38,676; 603
19:18:38,680; 626
19:18:38,684; 659
19:18:38,688; 671
19:18:38,691; 703
19:18:38,695; 704
19:18:38,699; 723
19:18:38,703; 758
19:18:38,707; 750
19:18:38,711; 769
19:18:38,715; 758
19:18:38,719; 743
19:18:38,723; 667
19:18:38,727; 638
19:18:38,730; 592
19:18:38,734; 553
19:18:38,738; 529
19:18:38,742; 477
19:18:38,746; 439
19:18:38,750; 428
19:18:38,754; 348
19:18:38,758; 320
19:18:38,762; 297
19:18:38,766; 269
19:18:38,770; 261
19:18:38,773; 243
19:18:38,777; 206
19:18:38,781; 190
19:18:38,785; 182
19:18:38,789; 171
19:18:38,793; 136
19:18:38,797; 172
19:18:38,801; 185
19:18:38,805; 177
19:18:38,809; 173
19:18:38,812; 190
19:18:38,816; 170
19:18:38,820; 158
19:18:38,824; 165
19:18:38,828; 190
19:18:38,832; 187
19:18:38,836; 195
19:18:38,840; 207
19:18:38,844; 155
19:18:38,848; 194
19:18:38,852; 142
19:18:38,855; 159
19:18:38,859; 195
19:18:38,863; 185
19:18:38,867; 187
19:18:38,871; 204
19:18:38,875; 161
19:18:38,879; 194
19:18:38,883; 138
19:18:38,887; 168
19:18:38,891; 151
19:18:38,895; 155
19:18:38,898; 185
19:18:38,902; 167
19:18:38,906; 168
19:18:38,910; 163
19:18:38,914; 139
19:18:38,918; 104
19:18:38,922; 106
19:18:38,926; 101
19:18:38,930; 99
19:18:38,934; 117
19:18:38,938; 103
19:18:38,941; 113
19:18:38,945; 88
19:18:38,949; 87
19:18:38,953; 97
19:18:38,957; 87
19:18:38,961; 79
19:18:38,965; 91
19:18:38,969; 81
19:18:38,973; 56
19:18:38,977; 75
19:18:38,980; 54
19:18:38,984; 78
19:18:38,988; 71
19:18:38,992; 40
19:18:38,996; 59
19:18:39,000; 67
19:18:39,004; 37
19:18:39,008; 54
19:18:39,012; 66
19:18:39,016; 50
19:18:39,020; 58
19:18:39,023; 75
19:18:39,027; 57
19:18:39,031; 92
19:18:39,035; 86
19:18:39,039; 116
19:18:39,043; 122
19:18:39,047; 124
19:18:39,051; 135
19:18:39,055; 172
19:18:39,059; 149
19:18:39,062; 147
19:18:39,066; 157
19:18:39,070; 172
19:18:39,074; 132
19:18:39,078; 146
19:18:39,082; 131
19:18:39,086; 123
19:18:39,090; 161
19:18:39,094; 87
19:18:39,098; 125
19:18:39,102; 56
19:18:39,105; 35
19:18:39,109; 21
19:18:39,113; -2
19:18:39,117; -8
19:18:39,121; 5
19:18:39,125; 13
19:18:39,129; -8
19:18:39,133; -11
19:18:39,137; -35
19:18:39,141; -11
19:18:39,145; -13
19:18:39,148; -19
19:18:39,152; 4
19:18:39,156; 29
19:18:39,160; -8
19:18:39,164; -20
19:18:39,168; -28
19:18:39,172; -34
19:18:39,176; -54
19:18:39,180; -13
19:18:39,184; 131
19:18:39,188; 370
19:18:39,191; 773
19:18:39,195; 1362
19:18:39,199; 1944
19:18:39,203; 2564
19:18:39,207; 2916
19:18:39,211; 2891
19:18:39,215; 2895
19:18:39,219; 2091
19:18:39,223; 1366
19:18:39,227; 273
19:18:39,230; -21
19:18:39,234; -256
19:18:39,238; -299
19:18:39,242; -26
19:18:39,246; 105
19:18:39,250; 242
19:18:39,254; 15
19:18:39,258; -2
19:18:39,262; -44
19:18:39,266; 107
19:18:39,270; 69
19:18:39,273; -6
19:18:39,277; 0
19:18:39,281; 15
19:18:39,285; 2
19:18:39,289; 14
19:18:39,293; 45
19:18:39,297; 81
19:18:39,301; 34
19:18:39,305; 57
19:18:39,309; 71
19:18:39,312; 39
19:18:39,316; 52
19:18:39,320; 16
19:18:39,324; 32
19:18:39,328; 71
19:18:39,332; 27
19:18:39,336; 63
19:18:39,340; 89
19:18:39,344; 108
19:18:39,348; 120
19:18:39,352; 75
19:18:39,355; 103
19:18:39,359; 126
19:18:39,363; 89
19:18:39,367; 115
19:18:39,371; 165
19:18:39,375; 171
19:18:39,379; 147
19:18:39,383; 199
19:18:39,387; 198
19:18:39,391; 215
19:18:39,395; 199
19:18:39,398; 235
19:18:39,402; 263
19:18:39,406; 278
19:18:39,410; 308
19:18:39,414; 355
19:18:39,418; 388
19:18:39,422; 402
19:18:39,426; 456
19:18:39,430; 480
19:18:39,434; 516
19:18:39,438; 578
19:18:39,441; 599
19:18:39,445; 598
19:18:39,449; 632
19:18:39,453; 689
19:18:39,457; 703
19:18:39,461; 722
19:18:39,465; 758
19:18:39,469; 788
19:18:39,473; 716
19:18:39,477; 734
19:18:39,480; 708
19:18:39,484; 657
19:18:39,488; 587
19:18:39,492; 548
19:18:39,496; 481
19:18:39,500; 421
19:18:39,504; 372
19:18:39,508; 358
19:18:39,512; 333
19:18:39,516; 256
19:18:39,520; 237
19:18:39,523; 210
19:18:39,527; 148
19:18:39,531; 154
19:18:39,535; 115
19:18:39,539; 112
19:18:39,543; 82
19:18:39,547; 105
19:18:39,551; 68
19:18:39,555; 65
19:18:39,559; 74
19:18:39,562; 56
19:18:39,566; 41
19:18:39,570; 62
19:18:39,574; 30
19:18:39,578; 73
19:18:39,582; 65
19:18:39,586; 69
19:18:39,590; 63
19:18:39,594; 66
19:18:39,598; 72
19:18:39,602; 56
19:18:39,605; 57
19:18:39,609; 99
19:18:39,613; 76
19:18:39,617; 88
19:18:39,621; 96
19:18:39,625; 100
19:18:39,629; 119
19:18:39,633; 79
19:18:39,637; 89
19:18:39,641; 84
19:18:39,645; 73
19:18:39,648; 91
19:18:39,652; 69
19:18:39,656; 79
19:18:39,660; 86
19:18:39,664; 87
19:18:39,668; 57
19:18:39,672; 110
19:18:39,676; 105
19:18:39,680; 70
19:18:39,684; 87
19:18:39,688; 58
19:18:39,691; 50
19:18:39,695; 59
19:18:39,699; 11
19:18:39,703; 26
19:18:39,707; 31
19:18:39,711; 35
19:18:39,715; -5
19:18:39,719; 37
19:18:39,723; 17
19:18:39,727; 28
19:18:39,730; -23
19:18:39,734; 26
19:18:39,738; -5
19:18:39,742; -6
19:18:39,746; -17
19:18:39,750; 1
19:18:39,754; -50
19:18:39,758; 6
19:18:39,762; -31
19:18:39,766; -14
19:18:39,770; 6
19:18:39,773; -6
19:18:39,777; 9
19:18:39,781; 66
19:18:39,785; 65
19:18:39,789; 82
19:18:39,793; 92
19:18:39,797; 148
19:18:39,801; 97
19:18:39,805; 93
19:18:39,809; 106
19:18:39,813; 112
19:18:39,816; 112
19:18:39,820; 98
19:18:39,824; 92
19:18:39,828; 109
19:18:39,832; 87
19:18:39,836; 71
19:18:39,840; 57
19:18:39,844; 73
19:18:39,848; 42
19:18:39,852; 30
19:18:39,855; -14
19:18:39,859; -33
19:18:39,863; -46
19:18:39,867; -45
19:18:39,871; -84
19:18:39,875; -79
19:18:39,879; -39
19:18:39,883; -68
19:18:39,887; -77
19:18:39,891; -67
19:18:39,895; -61
19:18:39,898; -57
19:18:39,902; -51
19:18:39,906; -64
19:18:39,910; -59
19:18:39,914; -67
19:18:39,918; -53
19:18:39,922; -80
19:18:39,926; -50
19:18:39,930; 25
19:18:39,934; 96
19:18:39,938; 254
19:18:39,941; 648
19:18:39,945; 1518
19:18:39,949; 2170
19:18:39,953; 2726
19:18:39,957; 2893
19:18:39,961; 3106
19:18:39,965; 2551
19:18:39,969; 1802
19:18:39,973; 980
19:18:39,977; 344
19:18:39,980; -18
19:18:39,984; -194
19:18:39,988; -134
19:18:39,992; -27
19:18:39,996; 192
19:18:40,000; 187
19:18:40,004; 12
19:18:40,008; -33
19:18:40,012; -13
19:18:40,016; 50
19:18:40,020; -41
19:18:40,023; -29
19:18:40,027; -57
19:18:40,031; -53
19:18:40,035; -19
19:18:40,039; -25
19:18:40,043; -19
19:18:40,047; -22
19:18:40,051; -46
19:18:40,055; -25
19:18:40,059; -18
19:18:40,063; -54
19:18:40,066; -14
19:18:40,070; 21
19:18:40,074; -31
19:18:40,078; 8
19:18:40,082; -10
19:18:40,086; 3
19:18:40,090; -23
19:18:40,094; 12
19:18:40,098; 51
19:18:40,102; 18
19:18:40,105; 20
19:18:40,109; 42
19:18:40,113; 54
19:18:40,117; 66
19:18:40,121; 62
19:18:40,125; 93
19:18:40,129; 93
19:18:40,133; 96
19:18:40,137; 105
19:18:40,141; 146
19:18:40,145; 150
19:18:40,148; 192
19:18:40,152; 207
19:18:40,156; 219
19:18:40,160; 269
19:18:40,164; 282
19:18:40,168; 309
19:18:40,172; 367
19:18:40,176; 411
19:18:40,180; 450
19:18:40,184; 460
19:18:40,188; 495
19:18:40,191; 512
19:18:40,195; 572
19:18:40,199; 580
19:18:40,203; 638
19:18:40,207; 650
19:18:40,211; 680
19:18:40,215; 646
19:18:40,219; 674
19:18:40,223; 648
19:18:40,227; 613
19:18:40,230; 573
19:18:40,234; 523
19:18:40,238; 467
19:18:40,242; 428
19:18:40,246; 381
19:18:40,250; 324
19:18:40,254; 276
19:18:40,258; 238
19:18:40,262; 162
19:18:40,266; 144
19:18:40,270; 113
19:18:40,273; 81
19:18:40,277; 63
19:18:40,281; 47
19:18:40,285; 38
19:18:40,289; 25
19:18:40,293; -13
19:18:40,297; 15
19:18:40,301; 1
19:18:40,305; -5
19:18:40,309; -18
19:18:40,313; -12
19:18:40,316; -17
19:18:40,320; -35
19:18:40,324; -37
19:18:40,328; -2
19:18:40,332; -8
19:18:40,336; -18
19:18:40,340; 1
19:18:40,344; -4
19:18:40,348; 2
19:18:40,352; 24
19:18:40,355; 17
19:18:40,359; 44
19:18:40,363; 37
19:18:40,367; 38
19:18:40,371; 41
19:18:40,375; 37
19:18:40,379; 57
19:18:40,383; 45
19:18:40,387; 37
19:18:40,391; 92
19:18:40,395; 49
19:18:40,398; 61
19:18:40,402; 63
19:18:40,406; 66
19:18:40,410; 67
19:18:40,414; 54
19:18:40,418; 75
19:18:40,422; 56
19:18:40,426; 40
19:18:40,430; 39
19:18:40,434; 21
19:18:40,438; 28
19:18:40,441; 18
19:18:40,445; 1
19:18:40,449; -8
19:18:40,453; -3
19:18:40,457; -20
19:18:40,461; 5
19:18:40,465; 12
19:18:40,469; -22
19:18:40,473; -3
19:18:40,477; -20
19:18:40,480; -42
19:18:40,484; -14
19:18:40,488; -29
19:18:40,492; -34
19:18:40,496; -34
19:18:40,500; -53
19:18:40,504; -50
19:18:40,508; -73
19:18:40,512; -78
19:18:40,516; -58
19:18:40,520; -55
19:18:40,523; -87
19:18:40,527; -63
19:18:40,531; -55
19:18:40,535; -68
19:18:40,539; -72
19:18:40,543; -87
19:18:40,547; -59
19:18:40,551; -72
19:18:40,555; -75
19:18:40,559; -89
19:18:40,562; -73
19:18:40,566; -81
19:18:40,570; -85
19:18:40,574; -94
19:18:40,578; -68
19:18:40,582; -86
19:18:40,586; -63
19:18:40,590; -72
19:18:40,594; -106
19:18:40,598; -64
19:18:40,602; -83
19:18:40,605; -101
19:18:40,609; -70
19:18:40,613; -84
19:18:40,617; -96
19:18:40,621; -108
19:18:40,625; -96
19:18:40,629; -106
19:18:40,633; -115
19:18:40,637; -118
19:18:40,641; -94
19:18:40,645; -134
19:18:40,648; -113
19:18:40,652; -103
19:18:40,656; -117
19:18:40,660; -90
19:18:40,664; -113
19:18:40,668; -94
19:18:40,672; -113
19:18:40,676; -122
19:18:40,680; -103
19:18:40,684; -123
19:18:40,688; -104
19:18:40,691; -93
19:18:40,695; -126
19:18:40,699; -109
19:18:40,703; -103
19:18:40,707; -133
19:18:40,711; -112
19:18:40,715; -120
19:18:40,719; -111
19:18:40,723; -125
19:18:40,727; -129
19:18:40,730; -126
19:18:40,734; -105
19:18:40,738; -98
19:18:40,742; -118
19:18:40,746; -106
19:18:40,750; -109
19:18:40,754; -141
19:18:40,758; -122
19:18:40,762; -130
19:18:40,766; -107
19:18:40,770; -118
19:18:40,773; -114
19:18:40,777; -77
19:18:40,781; -112
19:18:40,785; -123
19:18:40,789; -112
19:18:40,793; -134
19:18:40,797; -112
19:18:40,801; -126
19:18:40,805; -130
19:18:40,809; -96
19:18:40,812; -114
19:18:40,816; -109
19:18:40,820; -112
19:18:40,824; -111
19:18:40,828; -116
19:18:40,832; -132
19:18:40,836; -124
19:18:40,840; -124
19:18:40,844; -132
19:18:40,848; -123
19:18:40,852; -121
19:18:40,855; -136
19:18:40,859; -117
19:18:40,863; -115
19:18:40,867; -127
19:18:40,871; -114
19:18:40,875; -127
19:18:40,879; -122
19:18:40,883; -124
19:18:40,887; -100
19:18:40,891; -59
19:18:40,895; -77
19:18:40,898; -42
19:18:40,902; -20
19:18:40,906; -27
19:18:40,910; -31
19:18:40,914; -14
19:18:40,918; -16
19:18:40,922; -19
19:18:40,926; -34
19:18:40,930; -35
19:18:40,934; -46
19:18:40,938; -40
19:18:40,941; -49
19:18:40,945; -67
19:18:40,949; -64
19:18:40,953; -73
19:18:40,957; -101
19:18:40,961; -121
19:18:40,965; -117
19:18:40,969; -154
19:18:40,973; -167
19:18:40,977; -150
19:18:40,980; -187
19:18:40,984; -163
19:18:40,988; -147
19:18:40,992; -165
19:18:40,996; -157
19:18:41,000; -158
19:18:41,004; -148
19:18:41,008; -143
19:18:41,012; -157
19:18:41,016; -149
