Signal Type: ECG_Type
Start Time: 26/04/2023 18:41:23
Sample Rate: 256
Length: 76350
Unit: µV

Data:
18:41:23,000; 0
18:41:23,004; 0
18:41:23,008; 0
18:41:23,012; 0
18:41:23,016; 0
18:41:23,020; 0
18:41:23,023; 0
18:41:23,027; 0
18:41:23,031; 0
18:41:23,035; 0
18:41:23,039; 0
18:41:23,043; 0
18:41:23,047; 0
18:41:23,051; 0
18:41:23,055; 0
18:41:23,059; 0
18:41:23,062; 0
18:41:23,066; 0
18:41:23,070; 0
18:41:23,074; 0
18:41:23,078; 0
18:41:23,082; 0
18:41:23,086; 0
18:41:23,090; 0
18:41:23,094; 0
18:41:23,098; 0
18:41:23,102; 0
18:41:23,105; 0
18:41:23,109; 0
18:41:23,113; 0
18:41:23,117; 0
18:41:23,121; 0
18:41:23,125; 0
18:41:23,129; 0
18:41:23,133; 0
18:41:23,137; 0
18:41:23,141; 0
18:41:23,145; 0
18:41:23,148; 0
18:41:23,152; 0
18:41:23,156; 0
18:41:23,160; 0
18:41:23,164; 0
18:41:23,168; 0
18:41:23,172; 0
18:41:23,176; 0
18:41:23,180; 0
18:41:23,184; 0
18:41:23,188; 0
18:41:23,191; 0
18:41:23,195; 0
18:41:23,199; 0
18:41:23,203; 0
18:41:23,207; 0
18:41:23,211; 0
18:41:23,215; 0
18:41:23,219; 0
18:41:23,223; 0
18:41:23,227; 0
18:41:23,230; 0
18:41:23,234; 0
18:41:23,238; 0
18:41:23,242; 0
18:41:23,246; 0
18:41:23,250; 0
18:41:23,254; 0
18:41:23,258; 0
18:41:23,262; 0
18:41:23,266; 0
18:41:23,270; 0
18:41:23,273; 0
18:41:23,277; 0
18:41:23,281; 0
18:41:23,285; 0
18:41:23,289; 0
18:41:23,293; 0
18:41:23,297; 0
18:41:23,301; 0
18:41:23,305; 0
18:41:23,309; 0
18:41:23,312; 0
18:41:23,316; 0
18:41:23,320; 0
18:41:23,324; 0
18:41:23,328; 0
18:41:23,332; 0
18:41:23,336; 0
18:41:23,340; 0
18:41:23,344; 0
18:41:23,348; 0
18:41:23,352; 0
18:41:23,355; 0
18:41:23,359; 0
18:41:23,363; 0
18:41:23,367; 0
18:41:23,371; 0
18:41:23,375; 0
18:41:23,379; 0
18:41:23,383; 0
18:41:23,387; 0
18:41:23,391; 0
18:41:23,395; 0
18:41:23,398; 0
18:41:23,402; 0
18:41:23,406; 0
18:41:23,410; 0
18:41:23,414; 0
18:41:23,418; 0
18:41:23,422; 0
18:41:23,426; 0
18:41:23,430; 0
18:41:23,434; 0
18:41:23,437; 0
18:41:23,441; 0
18:41:23,445; 0
18:41:23,449; 0
18:41:23,453; 0
18:41:23,457; 0
18:41:23,461; 0
18:41:23,465; 0
18:41:23,469; 0
18:41:23,473; 0
18:41:23,477; 0
18:41:23,480; 0
18:41:23,484; 0
18:41:23,488; 0
18:41:23,492; 0
18:41:23,496; 0
18:41:23,500; -1118
18:41:23,504; -982
18:41:23,508; -1300
18:41:23,512; -1538
18:41:23,516; -1468
18:41:23,520; -1247
18:41:23,523; -1157
18:41:23,527; -1249
18:41:23,531; -1355
18:41:23,535; -1341
18:41:23,539; -1301
18:41:23,543; -1282
18:41:23,547; -1303
18:41:23,551; -1351
18:41:23,555; -1354
18:41:23,559; -1332
18:41:23,562; -1338
18:41:23,566; -1366
18:41:23,570; -1403
18:41:23,574; -1425
18:41:23,578; -1419
18:41:23,582; -1424
18:41:23,586; -1420
18:41:23,590; -1412
18:41:23,594; -1419
18:41:23,598; -1415
18:41:23,602; -1402
18:41:23,605; -1414
18:41:23,609; -1409
18:41:23,613; -1393
18:41:23,617; -1399
18:41:23,621; -1386
18:41:23,625; -1399
18:41:23,629; -1426
18:41:23,633; -1391
18:41:23,637; -1360
18:41:23,641; -1245
18:41:23,645; -1011
18:41:23,648; -556
18:41:23,652; 17
18:41:23,656; 616
18:41:23,660; 1117
18:41:23,664; 1359
18:41:23,668; 1410
18:41:23,672; 925
18:41:23,676; 200
18:41:23,680; -517
18:41:23,684; -1104
18:41:23,687; -1393
18:41:23,691; -1464
18:41:23,695; -1374
18:41:23,699; -1197
18:41:23,703; -1183
18:41:23,707; -1247
18:41:23,711; -1268
18:41:23,715; -1352
18:41:23,719; -1351
18:41:23,723; -1280
18:41:23,727; -1325
18:41:23,730; -1320
18:41:23,734; -1310
18:41:23,738; -1319
18:41:23,742; -1312
18:41:23,746; -1328
18:41:23,750; -1333
18:41:23,754; -1339
18:41:23,758; -1320
18:41:23,762; -1312
18:41:23,766; -1309
18:41:23,770; -1288
18:41:23,773; -1300
18:41:23,777; -1288
18:41:23,781; -1293
18:41:23,785; -1273
18:41:23,789; -1280
18:41:23,793; -1277
18:41:23,797; -1271
18:41:23,801; -1252
18:41:23,805; -1256
18:41:23,809; -1246
18:41:23,812; -1234
18:41:23,816; -1222
18:41:23,820; -1219
18:41:23,824; -1205
18:41:23,828; -1185
18:41:23,832; -1191
18:41:23,836; -1163
18:41:23,840; -1158
18:41:23,844; -1132
18:41:23,848; -1129
18:41:23,852; -1104
18:41:23,855; -1081
18:41:23,859; -1069
18:41:23,863; -1053
18:41:23,867; -1018
18:41:23,871; -996
18:41:23,875; -979
18:41:23,879; -926
18:41:23,883; -926
18:41:23,887; -860
18:41:23,891; -840
18:41:23,895; -799
18:41:23,898; -780
18:41:23,902; -750
18:41:23,906; -731
18:41:23,910; -714
18:41:23,914; -696
18:41:23,918; -669
18:41:23,922; -640
18:41:23,926; -634
18:41:23,930; -625
18:41:23,934; -647
18:41:23,938; -655
18:41:23,941; -679
18:41:23,945; -733
18:41:23,949; -778
18:41:23,953; -804
18:41:23,957; -853
18:41:23,961; -889
18:41:23,965; -938
18:41:23,969; -950
18:41:23,973; -984
18:41:23,977; -1041
18:41:23,980; -1033
18:41:23,984; -1078
18:41:23,988; -1077
18:41:23,992; -1113
18:41:23,996; -1112
18:41:24,000; -1131
18:41:24,004; -1134
18:41:24,008; -1142
18:41:24,012; -1131
18:41:24,016; -1148
18:41:24,020; -1127
18:41:24,023; -1142
18:41:24,027; -1131
18:41:24,031; -1147
18:41:24,035; -1129
18:41:24,039; -1136
18:41:24,043; -1125
18:41:24,047; -1124
18:41:24,051; -1115
18:41:24,055; -1109
18:41:24,059; -1111
18:41:24,062; -1099
18:41:24,066; -1110
18:41:24,070; -1087
18:41:24,074; -1105
18:41:24,078; -1095
18:41:24,082; -1101
18:41:24,086; -1092
18:41:24,090; -1089
18:41:24,094; -1086
18:41:24,098; -1079
18:41:24,102; -1080
18:41:24,105; -1068
18:41:24,109; -1087
18:41:24,113; -1070
18:41:24,117; -1084
18:41:24,121; -1074
18:41:24,125; -1094
18:41:24,129; -1087
18:41:24,133; -1100
18:41:24,137; -1100
18:41:24,141; -1109
18:41:24,145; -1106
18:41:24,148; -1110
18:41:24,152; -1117
18:41:24,156; -1115
18:41:24,160; -1125
18:41:24,164; -1112
18:41:24,168; -1124
18:41:24,172; -1119
18:41:24,176; -1140
18:41:24,180; -1128
18:41:24,184; -1147
18:41:24,188; -1140
18:41:24,191; -1149
18:41:24,195; -1134
18:41:24,199; -1140
18:41:24,203; -1139
18:41:24,207; -1133
18:41:24,211; -1142
18:41:24,215; -1131
18:41:24,219; -1147
18:41:24,223; -1132
18:41:24,227; -1146
18:41:24,230; -1134
18:41:24,234; -1145
18:41:24,238; -1132
18:41:24,242; -1147
18:41:24,246; -1132
18:41:24,250; -1136
18:41:24,254; -1136
18:41:24,258; -1132
18:41:24,262; -1137
18:41:24,266; -1131
18:41:24,270; -1151
18:41:24,273; -1133
18:41:24,277; -1132
18:41:24,281; -1137
18:41:24,285; -1129
18:41:24,289; -1122
18:41:24,293; -1128
18:41:24,297; -1126
18:41:24,301; -1117
18:41:24,305; -1126
18:41:24,309; -1113
18:41:24,312; -1116
18:41:24,316; -1116
18:41:24,320; -1120
18:41:24,324; -1116
18:41:24,328; -1114
18:41:24,332; -1115
18:41:24,336; -1118
18:41:24,340; -1105
18:41:24,344; -1114
18:41:24,348; -1114
18:41:24,352; -1099
18:41:24,355; -1103
18:41:24,359; -1100
18:41:24,363; -1101
18:41:24,367; -1106
18:41:24,371; -1098
18:41:24,375; -1106
18:41:24,379; -1108
18:41:24,383; -1105
18:41:24,387; -1096
18:41:24,391; -1102
18:41:24,395; -1095
18:41:24,398; -1100
18:41:24,402; -1095
18:41:24,406; -1088
18:41:24,410; -1095
18:41:24,414; -1093
18:41:24,418; -1085
18:41:24,422; -1092
18:41:24,426; -1093
18:41:24,430; -1089
18:41:24,434; -1084
18:41:24,438; -1069
18:41:24,441; -1060
18:41:24,445; -1053
18:41:24,449; -1037
18:41:24,453; -1027
18:41:24,457; -1010
18:41:24,461; -992
18:41:24,465; -983
18:41:24,469; -953
18:41:24,473; -934
18:41:24,477; -937
18:41:24,480; -935
18:41:24,484; -933
18:41:24,488; -949
18:41:24,492; -964
18:41:24,496; -980
18:41:24,500; -975
18:41:24,504; -989
18:41:24,508; -997
18:41:24,512; -993
18:41:24,516; -1024
18:41:24,520; -1032
18:41:24,523; -1052
18:41:24,527; -1066
18:41:24,531; -1062
18:41:24,535; -1066
18:41:24,539; -1064
18:41:24,543; -1056
18:41:24,547; -1054
18:41:24,551; -1068
18:41:24,555; -1063
18:41:24,559; -1063
18:41:24,562; -1063
18:41:24,566; -1060
18:41:24,570; -1060
18:41:24,574; -1056
18:41:24,578; -1069
18:41:24,582; -1093
18:41:24,586; -1036
18:41:24,590; -952
18:41:24,594; -816
18:41:24,598; -488
18:41:24,602; 98
18:41:24,605; 656
18:41:24,609; 1252
18:41:24,613; 1484
18:41:24,617; 1602
18:41:24,621; 1262
18:41:24,625; 490
18:41:24,629; -298
18:41:24,633; -908
18:41:24,637; -1207
18:41:24,641; -1149
18:41:24,645; -1088
18:41:24,648; -975
18:41:24,652; -789
18:41:24,656; -907
18:41:24,660; -1049
18:41:24,664; -1030
18:41:24,668; -1039
18:41:24,672; -955
18:41:24,676; -995
18:41:24,680; -1044
18:41:24,684; -1032
18:41:24,688; -1016
18:41:24,691; -1026
18:41:24,695; -985
18:41:24,699; -972
18:41:24,703; -1000
18:41:24,707; -981
18:41:24,711; -965
18:41:24,715; -975
18:41:24,719; -958
18:41:24,723; -972
18:41:24,727; -964
18:41:24,730; -958
18:41:24,734; -949
18:41:24,738; -952
18:41:24,742; -953
18:41:24,746; -949
18:41:24,750; -931
18:41:24,754; -921
18:41:24,758; -915
18:41:24,762; -906
18:41:24,766; -909
18:41:24,770; -902
18:41:24,773; -897
18:41:24,777; -894
18:41:24,781; -873
18:41:24,785; -855
18:41:24,789; -849
18:41:24,793; -835
18:41:24,797; -817
18:41:24,801; -810
18:41:24,805; -793
18:41:24,809; -774
18:41:24,812; -747
18:41:24,816; -720
18:41:24,820; -702
18:41:24,824; -673
18:41:24,828; -648
18:41:24,832; -621
18:41:24,836; -593
18:41:24,840; -564
18:41:24,844; -532
18:41:24,848; -502
18:41:24,852; -470
18:41:24,855; -440
18:41:24,859; -419
18:41:24,863; -400
18:41:24,867; -375
18:41:24,871; -369
18:41:24,875; -358
18:41:24,879; -359
18:41:24,883; -376
18:41:24,887; -399
18:41:24,891; -441
18:41:24,895; -487
18:41:24,898; -528
18:41:24,902; -578
18:41:24,906; -622
18:41:24,910; -647
18:41:24,914; -691
18:41:24,918; -722
18:41:24,922; -757
18:41:24,926; -780
18:41:24,930; -816
18:41:24,934; -833
18:41:24,937; -851
18:41:24,941; -861
18:41:24,945; -872
18:41:24,949; -882
18:41:24,953; -889
18:41:24,957; -893
18:41:24,961; -895
18:41:24,965; -895
18:41:24,969; -906
18:41:24,973; -901
18:41:24,977; -896
18:41:24,980; -907
18:41:24,984; -901
18:41:24,988; -891
18:41:24,992; -889
18:41:24,996; -889
18:41:25,000; -879
18:41:25,004; -874
18:41:25,008; -874
18:41:25,012; -872
18:41:25,016; -867
18:41:25,020; -861
18:41:25,023; -862
18:41:25,027; -854
18:41:25,031; -846
18:41:25,035; -847
18:41:25,039; -837
18:41:25,043; -833
18:41:25,047; -846
18:41:25,051; -835
18:41:25,055; -841
18:41:25,059; -846
18:41:25,062; -845
18:41:25,066; -843
18:41:25,070; -843
18:41:25,074; -843
18:41:25,078; -854
18:41:25,082; -853
18:41:25,086; -853
18:41:25,090; -866
18:41:25,094; -863
18:41:25,098; -866
18:41:25,102; -869
18:41:25,105; -865
18:41:25,109; -876
18:41:25,113; -882
18:41:25,117; -876
18:41:25,121; -886
18:41:25,125; -879
18:41:25,129; -882
18:41:25,133; -880
18:41:25,137; -872
18:41:25,141; -887
18:41:25,145; -889
18:41:25,148; -882
18:41:25,152; -895
18:41:25,156; -890
18:41:25,160; -895
18:41:25,164; -897
18:41:25,168; -896
18:41:25,172; -884
18:41:25,176; -882
18:41:25,180; -883
18:41:25,184; -884
18:41:25,187; -883
18:41:25,191; -890
18:41:25,195; -897
18:41:25,199; -893
18:41:25,203; -887
18:41:25,207; -884
18:41:25,211; -887
18:41:25,215; -887
18:41:25,219; -888
18:41:25,223; -883
18:41:25,227; -887
18:41:25,230; -884
18:41:25,234; -882
18:41:25,238; -877
18:41:25,242; -885
18:41:25,246; -882
18:41:25,250; -885
18:41:25,254; -887
18:41:25,258; -878
18:41:25,262; -875
18:41:25,266; -862
18:41:25,270; -859
18:41:25,273; -886
18:41:25,277; -878
18:41:25,281; -894
18:41:25,285; -882
18:41:25,289; -879
18:41:25,293; -881
18:41:25,297; -873
18:41:25,301; -860
18:41:25,305; -878
18:41:25,309; -882
18:41:25,312; -872
18:41:25,316; -865
18:41:25,320; -864
18:41:25,324; -860
18:41:25,328; -843
18:41:25,332; -813
18:41:25,336; -798
18:41:25,340; -795
18:41:25,344; -766
18:41:25,348; -763
18:41:25,352; -751
18:41:25,355; -735
18:41:25,359; -723
18:41:25,363; -717
18:41:25,367; -731
18:41:25,371; -740
18:41:25,375; -751
18:41:25,379; -765
18:41:25,383; -771
18:41:25,387; -777
18:41:25,391; -786
18:41:25,395; -792
18:41:25,398; -811
18:41:25,402; -849
18:41:25,406; -841
18:41:25,410; -870
18:41:25,414; -875
18:41:25,418; -874
18:41:25,422; -875
18:41:25,426; -868
18:41:25,430; -861
18:41:25,434; -867
18:41:25,437; -874
18:41:25,441; -862
18:41:25,445; -863
18:41:25,449; -863
18:41:25,453; -867
18:41:25,457; -859
18:41:25,461; -877
18:41:25,465; -917
18:41:25,469; -865
18:41:25,473; -802
18:41:25,477; -644
18:41:25,480; -289
18:41:25,484; 251
18:41:25,488; 774
18:41:25,492; 1331
18:41:25,496; 1763
18:41:25,500; 1732
18:41:25,504; 1585
18:41:25,508; 901
18:41:25,512; 1
18:41:25,516; -464
18:41:25,520; -1023
18:41:25,523; -1070
18:41:25,527; -1008
18:41:25,531; -835
18:41:25,535; -680
18:41:25,539; -739
18:41:25,543; -818
18:41:25,547; -798
18:41:25,551; -870
18:41:25,555; -801
18:41:25,559; -827
18:41:25,562; -785
18:41:25,566; -837
18:41:25,570; -809
18:41:25,574; -837
18:41:25,578; -800
18:41:25,582; -825
18:41:25,586; -806
18:41:25,590; -795
18:41:25,594; -810
18:41:25,598; -783
18:41:25,602; -797
18:41:25,605; -787
18:41:25,609; -782
18:41:25,613; -772
18:41:25,617; -774
18:41:25,621; -757
18:41:25,625; -769
18:41:25,629; -766
18:41:25,633; -738
18:41:25,637; -744
18:41:25,641; -756
18:41:25,645; -734
18:41:25,648; -735
18:41:25,652; -727
18:41:25,656; -717
18:41:25,660; -711
18:41:25,664; -695
18:41:25,668; -687
18:41:25,672; -671
18:41:25,676; -656
18:41:25,680; -642
18:41:25,684; -623
18:41:25,688; -612
18:41:25,691; -591
18:41:25,695; -577
18:41:25,699; -556
18:41:25,703; -526
18:41:25,707; -503
18:41:25,711; -468
18:41:25,715; -448
18:41:25,719; -402
18:41:25,723; -386
18:41:25,727; -355
18:41:25,730; -321
18:41:25,734; -304
18:41:25,738; -271
18:41:25,742; -243
18:41:25,746; -230
18:41:25,750; -209
18:41:25,754; -187
18:41:25,758; -194
18:41:25,762; -179
18:41:25,766; -184
18:41:25,770; -228
18:41:25,773; -260
18:41:25,777; -319
18:41:25,781; -362
18:41:25,785; -415
18:41:25,789; -453
18:41:25,793; -482
18:41:25,797; -544
18:41:25,801; -577
18:41:25,805; -597
18:41:25,809; -630
18:41:25,812; -657
18:41:25,816; -661
18:41:25,820; -689
18:41:25,824; -700
18:41:25,828; -723
18:41:25,832; -728
18:41:25,836; -725
18:41:25,840; -737
18:41:25,844; -742
18:41:25,848; -746
18:41:25,852; -752
18:41:25,855; -743
18:41:25,859; -741
18:41:25,863; -742
18:41:25,867; -739
18:41:25,871; -732
18:41:25,875; -738
18:41:25,879; -731
18:41:25,883; -733
18:41:25,887; -728
18:41:25,891; -729
18:41:25,895; -723
18:41:25,898; -720
18:41:25,902; -713
18:41:25,906; -709
18:41:25,910; -711
18:41:25,914; -705
18:41:25,918; -701
18:41:25,922; -707
18:41:25,926; -698
18:41:25,930; -687
18:41:25,934; -692
18:41:25,938; -695
18:41:25,941; -693
18:41:25,945; -694
18:41:25,949; -704
18:41:25,953; -701
18:41:25,957; -698
18:41:25,961; -700
18:41:25,965; -708
18:41:25,969; -717
18:41:25,973; -720
18:41:25,977; -724
18:41:25,980; -725
18:41:25,984; -728
18:41:25,988; -731
18:41:25,992; -735
18:41:25,996; -739
18:41:26,000; -740
18:41:26,004; -741
18:41:26,008; -743
18:41:26,012; -749
18:41:26,016; -747
18:41:26,020; -754
18:41:26,023; -749
18:41:26,027; -756
18:41:26,031; -743
18:41:26,035; -750
18:41:26,039; -747
18:41:26,043; -750
18:41:26,047; -752
18:41:26,051; -746
18:41:26,055; -749
18:41:26,059; -754
18:41:26,062; -747
18:41:26,066; -750
18:41:26,070; -745
18:41:26,074; -748
18:41:26,078; -757
18:41:26,082; -757
18:41:26,086; -755
18:41:26,090; -757
18:41:26,094; -748
18:41:26,098; -756
18:41:26,102; -752
18:41:26,105; -749
18:41:26,109; -761
18:41:26,113; -761
18:41:26,117; -756
18:41:26,121; -762
18:41:26,125; -764
18:41:26,129; -762
18:41:26,133; -759
18:41:26,137; -754
18:41:26,141; -760
18:41:26,145; -751
18:41:26,148; -758
18:41:26,152; -763
18:41:26,156; -764
18:41:26,160; -757
18:41:26,164; -752
18:41:26,168; -747
18:41:26,172; -737
18:41:26,176; -730
18:41:26,180; -710
18:41:26,184; -696
18:41:26,188; -692
18:41:26,191; -671
18:41:26,195; -659
18:41:26,199; -652
18:41:26,203; -629
18:41:26,207; -621
18:41:26,211; -609
18:41:26,215; -604
18:41:26,219; -619
18:41:26,223; -622
18:41:26,227; -641
18:41:26,230; -634
18:41:26,234; -654
18:41:26,238; -666
18:41:26,242; -680
18:41:26,246; -693
18:41:26,250; -716
18:41:26,254; -729
18:41:26,258; -755
18:41:26,262; -750
18:41:26,266; -758
18:41:26,270; -761
18:41:26,273; -766
18:41:26,277; -747
18:41:26,281; -763
18:41:26,285; -767
18:41:26,289; -762
18:41:26,293; -764
18:41:26,297; -766
18:41:26,301; -761
18:41:26,305; -763
18:41:26,309; -758
18:41:26,312; -794
18:41:26,316; -806
18:41:26,320; -771
18:41:26,324; -730
18:41:26,328; -616
18:41:26,332; -340
18:41:26,336; 255
18:41:26,340; 859
18:41:26,344; 1513
18:41:26,348; 1909
18:41:26,352; 2027
18:41:26,355; 1689
18:41:26,359; 970
18:41:26,363; 215
18:41:26,367; -544
18:41:26,371; -793
18:41:26,375; -894
18:41:26,379; -847
18:41:26,383; -674
18:41:26,387; -635
18:41:26,391; -590
18:41:26,395; -714
18:41:26,398; -775
18:41:26,402; -711
18:41:26,406; -728
18:41:26,410; -695
18:41:26,414; -742
18:41:26,418; -720
18:41:26,422; -741
18:41:26,426; -748
18:41:26,430; -694
18:41:26,434; -730
18:41:26,438; -707
18:41:26,441; -710
18:41:26,445; -715
18:41:26,449; -710
18:41:26,453; -694
18:41:26,457; -706
18:41:26,461; -696
18:41:26,465; -678
18:41:26,469; -681
18:41:26,473; -685
18:41:26,477; -700
18:41:26,480; -682
18:41:26,484; -688
18:41:26,488; -674
18:41:26,492; -654
18:41:26,496; -652
18:41:26,500; -639
18:41:26,504; -642
18:41:26,508; -631
18:41:26,512; -623
18:41:26,516; -613
18:41:26,520; -589
18:41:26,523; -572
18:41:26,527; -573
18:41:26,531; -553
18:41:26,535; -526
18:41:26,539; -523
18:41:26,543; -501
18:41:26,547; -466
18:41:26,551; -449
18:41:26,555; -424
18:41:26,559; -399
18:41:26,562; -366
18:41:26,566; -332
18:41:26,570; -303
18:41:26,574; -276
18:41:26,578; -228
18:41:26,582; -193
18:41:26,586; -176
18:41:26,590; -144
18:41:26,594; -126
18:41:26,598; -100
18:41:26,602; -86
18:41:26,605; -62
18:41:26,609; -57
18:41:26,613; -72
18:41:26,617; -98
18:41:26,621; -132
18:41:26,625; -176
18:41:26,629; -224
18:41:26,633; -266
18:41:26,637; -313
18:41:26,641; -375
18:41:26,645; -404
18:41:26,648; -463
18:41:26,652; -483
18:41:26,656; -532
18:41:26,660; -553
18:41:26,664; -571
18:41:26,668; -600
18:41:26,672; -606
18:41:26,676; -626
18:41:26,680; -662
18:41:26,684; -663
18:41:26,687; -666
18:41:26,691; -679
18:41:26,695; -675
18:41:26,699; -678
18:41:26,703; -668
18:41:26,707; -674
18:41:26,711; -684
18:41:26,715; -674
18:41:26,719; -669
18:41:26,723; -672
18:41:26,727; -673
18:41:26,730; -670
18:41:26,734; -665
18:41:26,738; -656
18:41:26,742; -658
18:41:26,746; -651
18:41:26,750; -651
18:41:26,754; -655
18:41:26,758; -647
18:41:26,762; -639
18:41:26,766; -647
18:41:26,770; -637
18:41:26,773; -627
18:41:26,777; -629
18:41:26,781; -623
18:41:26,785; -616
18:41:26,789; -608
18:41:26,793; -612
18:41:26,797; -626
18:41:26,801; -641
18:41:26,805; -633
18:41:26,809; -637
18:41:26,812; -653
18:41:26,816; -630
18:41:26,820; -637
18:41:26,824; -657
18:41:26,828; -653
18:41:26,832; -655
18:41:26,836; -664
18:41:26,840; -670
18:41:26,844; -661
18:41:26,848; -658
18:41:26,852; -654
18:41:26,855; -671
18:41:26,859; -679
18:41:26,863; -665
18:41:26,867; -686
18:41:26,871; -681
18:41:26,875; -669
18:41:26,879; -665
18:41:26,883; -680
18:41:26,887; -681
18:41:26,891; -692
18:41:26,895; -681
18:41:26,898; -672
18:41:26,902; -661
18:41:26,906; -636
18:41:26,910; -606
18:41:26,914; -614
18:41:26,918; -596
18:41:26,922; -570
18:41:26,926; -551
18:41:26,930; -538
18:41:26,934; -534
18:41:26,937; -527
18:41:26,941; -522
18:41:26,945; -539
18:41:26,949; -561
18:41:26,953; -570
18:41:26,957; -578
18:41:26,961; -602
18:41:26,965; -600
18:41:26,969; -625
18:41:26,973; -622
18:41:26,977; -654
18:41:26,980; -684
18:41:26,984; -698
18:41:26,988; -699
18:41:26,992; -715
18:41:26,996; -701
18:41:27,000; -723
18:41:27,004; -717
18:41:27,008; -718
18:41:27,012; -721
18:41:27,016; -718
18:41:27,020; -719
18:41:27,023; -701
18:41:27,027; -705
18:41:27,031; -709
18:41:27,035; -720
18:41:27,039; -715
18:41:27,043; -761
18:41:27,047; -740
18:41:27,051; -700
18:41:27,055; -560
18:41:27,059; -359
18:41:27,062; 34
18:41:27,066; 818
18:41:27,070; 1384
18:41:27,074; 1879
18:41:27,078; 2221
18:41:27,082; 2081
18:41:27,086; 1518
18:41:27,090; 660
18:41:27,094; -161
18:41:27,098; -606
18:41:27,102; -750
18:41:27,105; -791
18:41:27,109; -757
18:41:27,113; -531
18:41:27,117; -480
18:41:27,121; -625
18:41:27,125; -695
18:41:27,129; -617
18:41:27,133; -641
18:41:27,137; -603
18:41:27,141; -659
18:41:27,145; -687
18:41:27,148; -653
18:41:27,152; -639
18:41:27,156; -664
18:41:27,160; -669
18:41:27,164; -646
18:41:27,168; -645
18:41:27,172; -638
18:41:27,176; -642
18:41:27,180; -637
18:41:27,184; -626
18:41:27,188; -632
18:41:27,191; -630
18:41:27,195; -629
18:41:27,199; -607
18:41:27,203; -603
18:41:27,207; -618
18:41:27,211; -589
18:41:27,215; -585
18:41:27,219; -589
18:41:27,223; -568
18:41:27,227; -564
18:41:27,230; -547
18:41:27,234; -541
18:41:27,238; -530
18:41:27,242; -525
18:41:27,246; -514
18:41:27,250; -514
18:41:27,254; -490
18:41:27,258; -478
18:41:27,262; -464
18:41:27,266; -428
18:41:27,270; -412
18:41:27,273; -404
18:41:27,277; -358
18:41:27,281; -311
18:41:27,285; -308
18:41:27,289; -273
18:41:27,293; -235
18:41:27,297; -211
18:41:27,301; -178
18:41:27,305; -133
18:41:27,309; -93
18:41:27,312; -53
18:41:27,316; -31
18:41:27,320; -16
18:41:27,324; 12
18:41:27,328; 34
18:41:27,332; 52
18:41:27,336; 46
18:41:27,340; 27
18:41:27,344; -6
18:41:27,348; -55
18:41:27,352; -84
18:41:27,355; -143
18:41:27,359; -216
18:41:27,363; -247
18:41:27,367; -308
18:41:27,371; -362
18:41:27,375; -405
18:41:27,379; -431
18:41:27,383; -454
18:41:27,387; -492
18:41:27,391; -500
18:41:27,395; -528
18:41:27,398; -567
18:41:27,402; -541
18:41:27,406; -572
18:41:27,410; -588
18:41:27,414; -583
18:41:27,418; -578
18:41:27,422; -609
18:41:27,426; -595
18:41:27,430; -600
18:41:27,434; -596
18:41:27,438; -591
18:41:27,441; -605
18:41:27,445; -606
18:41:27,449; -603
18:41:27,453; -598
18:41:27,457; -593
18:41:27,461; -591
18:41:27,465; -580
18:41:27,469; -578
18:41:27,473; -574
18:41:27,477; -569
18:41:27,480; -567
18:41:27,484; -583
18:41:27,488; -565
18:41:27,492; -563
18:41:27,496; -552
18:41:27,500; -539
18:41:27,504; -532
18:41:27,508; -535
18:41:27,512; -512
18:41:27,516; -531
18:41:27,520; -512
18:41:27,523; -515
18:41:27,527; -539
18:41:27,531; -543
18:41:27,535; -540
18:41:27,539; -541
18:41:27,543; -518
18:41:27,547; -533
18:41:27,551; -527
18:41:27,555; -541
18:41:27,559; -535
18:41:27,562; -553
18:41:27,566; -540
18:41:27,570; -542
18:41:27,574; -556
18:41:27,578; -579
18:41:27,582; -566
18:41:27,586; -589
18:41:27,590; -581
18:41:27,594; -581
18:41:27,598; -580
18:41:27,602; -563
18:41:27,605; -556
18:41:27,609; -561
18:41:27,613; -584
18:41:27,617; -584
18:41:27,621; -591
18:41:27,625; -589
18:41:27,629; -603
18:41:27,633; -586
18:41:27,637; -591
18:41:27,641; -603
18:41:27,645; -593
18:41:27,648; -602
18:41:27,652; -569
18:41:27,656; -559
18:41:27,660; -559
18:41:27,664; -509
18:41:27,668; -541
18:41:27,672; -472
18:41:27,676; -465
18:41:27,680; -472
18:41:27,684; -436
18:41:27,688; -443
18:41:27,691; -458
18:41:27,695; -427
18:41:27,699; -465
18:41:27,703; -457
18:41:27,707; -462
18:41:27,711; -474
18:41:27,715; -488
18:41:27,719; -510
18:41:27,723; -525
18:41:27,727; -542
18:41:27,730; -551
18:41:27,734; -602
18:41:27,738; -626
18:41:27,742; -617
18:41:27,746; -628
18:41:27,750; -622
18:41:27,754; -615
18:41:27,758; -625
18:41:27,762; -610
18:41:27,766; -638
18:41:27,770; -636
18:41:27,773; -624
18:41:27,777; -654
18:41:27,781; -643
18:41:27,785; -642
18:41:27,789; -651
18:41:27,793; -644
18:41:27,797; -654
18:41:27,801; -607
18:41:27,805; -577
18:41:27,809; -493
18:41:27,812; -265
18:41:27,816; 233
18:41:27,820; 1004
18:41:27,824; 1575
18:41:27,828; 2071
18:41:27,832; 2370
18:41:27,836; 2207
18:41:27,840; 1683
18:41:27,844; 797
18:41:27,848; -50
18:41:27,852; -527
18:41:27,855; -714
18:41:27,859; -784
18:41:27,863; -593
18:41:27,867; -478
18:41:27,871; -357
18:41:27,875; -528
18:41:27,879; -654
18:41:27,883; -680
18:41:27,887; -591
18:41:27,891; -561
18:41:27,895; -620
18:41:27,898; -642
18:41:27,902; -602
18:41:27,906; -641
18:41:27,910; -619
18:41:27,914; -603
18:41:27,918; -617
18:41:27,922; -584
18:41:27,926; -604
18:41:27,930; -564
18:41:27,934; -588
18:41:27,938; -610
18:41:27,941; -607
18:41:27,945; -590
18:41:27,949; -568
18:41:27,953; -559
18:41:27,957; -551
18:41:27,961; -563
18:41:27,965; -556
18:41:27,969; -562
18:41:27,973; -566
18:41:27,977; -516
18:41:27,980; -534
18:41:27,984; -513
18:41:27,988; -487
18:41:27,992; -525
18:41:27,996; -493
18:41:28,000; -480
18:41:28,004; -438
18:41:28,008; -441
18:41:28,012; -453
18:41:28,016; -413
18:41:28,020; -396
18:41:28,023; -377
18:41:28,027; -372
18:41:28,031; -321
18:41:28,035; -296
18:41:28,039; -291
18:41:28,043; -282
18:41:28,047; -246
18:41:28,051; -182
18:41:28,055; -147
18:41:28,059; -107
18:41:28,062; -26
18:41:28,066; 1
18:41:28,070; 43
18:41:28,074; 86
18:41:28,078; 103
18:41:28,082; 115
18:41:28,086; 113
18:41:28,090; 125
18:41:28,094; 99
18:41:28,098; 67
18:41:28,102; -1
18:41:28,105; -47
18:41:28,109; -119
18:41:28,113; -133
18:41:28,117; -238
18:41:28,121; -249
18:41:28,125; -306
18:41:28,129; -359
18:41:28,133; -416
18:41:28,137; -454
18:41:28,141; -464
18:41:28,145; -485
18:41:28,148; -519
18:41:28,152; -535
18:41:28,156; -518
18:41:28,160; -526
18:41:28,164; -539
18:41:28,168; -534
18:41:28,172; -551
18:41:28,176; -582
18:41:28,180; -583
18:41:28,184; -550
18:41:28,187; -587
18:41:28,191; -566
18:41:28,195; -567
18:41:28,199; -579
18:41:28,203; -553
18:41:28,207; -566
18:41:28,211; -528
18:41:28,215; -549
18:41:28,219; -559
18:41:28,223; -536
18:41:28,227; -582
18:41:28,230; -562
18:41:28,234; -533
18:41:28,238; -550
18:41:28,242; -536
18:41:28,246; -537
18:41:28,250; -529
18:41:28,254; -519
18:41:28,258; -531
18:41:28,262; -505
18:41:28,266; -516
18:41:28,270; -520
18:41:28,273; -515
18:41:28,277; -505
18:41:28,281; -491
18:41:28,285; -495
18:41:28,289; -514
18:41:28,293; -509
18:41:28,297; -533
18:41:28,301; -542
18:41:28,305; -513
18:41:28,309; -503
18:41:28,312; -517
18:41:28,316; -521
18:41:28,320; -528
18:41:28,324; -571
18:41:28,328; -542
18:41:28,332; -532
18:41:28,336; -553
18:41:28,340; -521
18:41:28,344; -537
18:41:28,348; -529
18:41:28,352; -535
18:41:28,355; -534
18:41:28,359; -542
18:41:28,363; -550
18:41:28,367; -571
18:41:28,371; -556
18:41:28,375; -561
18:41:28,379; -541
18:41:28,383; -539
18:41:28,387; -543
18:41:28,391; -538
18:41:28,395; -542
18:41:28,398; -558
18:41:28,402; -554
18:41:28,406; -541
18:41:28,410; -549
18:41:28,414; -565
18:41:28,418; -556
18:41:28,422; -523
18:41:28,426; -552
18:41:28,430; -543
18:41:28,434; -528
18:41:28,437; -501
18:41:28,441; -494
18:41:28,445; -490
18:41:28,449; -453
18:41:28,453; -416
18:41:28,457; -440
18:41:28,461; -441
18:41:28,465; -402
18:41:28,469; -401
18:41:28,473; -387
18:41:28,477; -367
18:41:28,480; -376
18:41:28,484; -375
18:41:28,488; -390
18:41:28,492; -399
18:41:28,496; -418
18:41:28,500; -419
18:41:28,504; -444
18:41:28,508; -455
18:41:28,512; -462
18:41:28,516; -497
18:41:28,520; -518
18:41:28,523; -548
18:41:28,527; -540
18:41:28,531; -545
18:41:28,535; -580
18:41:28,539; -535
18:41:28,543; -533
18:41:28,547; -543
18:41:28,551; -568
18:41:28,555; -556
18:41:28,559; -554
18:41:28,562; -555
18:41:28,566; -535
18:41:28,570; -530
18:41:28,574; -510
18:41:28,578; -549
18:41:28,582; -549
18:41:28,586; -508
18:41:28,590; -403
18:41:28,594; -259
18:41:28,598; 63
18:41:28,602; 676
18:41:28,605; 1260
18:41:28,609; 1892
18:41:28,613; 2153
18:41:28,617; 2302
18:41:28,621; 2045
18:41:28,625; 1377
18:41:28,629; 602
18:41:28,633; -131
18:41:28,637; -361
18:41:28,641; -514
18:41:28,645; -648
18:41:28,648; -443
18:41:28,652; -296
18:41:28,656; -373
18:41:28,660; -468
18:41:28,664; -448
18:41:28,668; -488
18:41:28,672; -421
18:41:28,676; -451
18:41:28,680; -483
18:41:28,684; -468
18:41:28,688; -461
18:41:28,691; -436
18:41:28,695; -436
18:41:28,699; -472
18:41:28,703; -427
18:41:28,707; -479
18:41:28,711; -465
18:41:28,715; -436
18:41:28,719; -434
18:41:28,723; -442
18:41:28,727; -444
18:41:28,730; -414
18:41:28,734; -422
18:41:28,738; -421
18:41:28,742; -414
18:41:28,746; -411
18:41:28,750; -395
18:41:28,754; -391
18:41:28,758; -371
18:41:28,762; -359
18:41:28,766; -356
18:41:28,770; -358
18:41:28,773; -352
18:41:28,777; -345
18:41:28,781; -306
18:41:28,785; -337
18:41:28,789; -323
18:41:28,793; -286
18:41:28,797; -282
18:41:28,801; -248
18:41:28,805; -242
18:41:28,809; -198
18:41:28,812; -194
18:41:28,816; -175
18:41:28,820; -127
18:41:28,824; -99
18:41:28,828; -69
18:41:28,832; -16
18:41:28,836; 24
18:41:28,840; 31
18:41:28,844; 71
18:41:28,848; 96
18:41:28,852; 121
18:41:28,855; 135
18:41:28,859; 167
18:41:28,863; 199
18:41:28,867; 235
18:41:28,871; 222
18:41:28,875; 210
18:41:28,879; 193
18:41:28,883; 146
18:41:28,887; 124
18:41:28,891; 68
18:41:28,895; 0
18:41:28,898; -40
18:41:28,902; -100
18:41:28,906; -151
18:41:28,910; -192
18:41:28,914; -225
18:41:28,918; -260
18:41:28,922; -280
18:41:28,926; -305
18:41:28,930; -315
18:41:28,934; -334
18:41:28,938; -345
18:41:28,941; -353
18:41:28,945; -354
18:41:28,949; -362
18:41:28,953; -369
18:41:28,957; -367
18:41:28,961; -378
18:41:28,965; -386
18:41:28,969; -379
18:41:28,973; -389
18:41:28,977; -384
18:41:28,980; -388
18:41:28,984; -391
18:41:28,988; -394
18:41:28,992; -386
18:41:28,996; -356
18:41:29,000; -351
18:41:29,004; -374
18:41:29,008; -368
18:41:29,012; -361
18:41:29,016; -368
18:41:29,020; -360
18:41:29,023; -346
18:41:29,027; -338
18:41:29,031; -344
18:41:29,035; -333
18:41:29,039; -347
18:41:29,043; -334
18:41:29,047; -328
18:41:29,051; -326
18:41:29,055; -336
18:41:29,059; -322
18:41:29,062; -325
18:41:29,066; -333
18:41:29,070; -316
18:41:29,074; -336
18:41:29,078; -323
18:41:29,082; -322
18:41:29,086; -329
18:41:29,090; -325
18:41:29,094; -332
18:41:29,098; -335
18:41:29,102; -335
18:41:29,105; -332
18:41:29,109; -339
18:41:29,113; -347
18:41:29,117; -343
18:41:29,121; -345
18:41:29,125; -355
18:41:29,129; -348
18:41:29,133; -338
18:41:29,137; -347
18:41:29,141; -357
18:41:29,145; -352
18:41:29,148; -367
18:41:29,152; -365
18:41:29,156; -358
18:41:29,160; -365
18:41:29,164; -375
18:41:29,168; -362
18:41:29,172; -373
18:41:29,176; -375
18:41:29,180; -357
18:41:29,184; -368
18:41:29,188; -356
18:41:29,191; -365
18:41:29,195; -376
18:41:29,199; -378
18:41:29,203; -377
18:41:29,207; -371
18:41:29,211; -367
18:41:29,215; -365
18:41:29,219; -377
18:41:29,223; -369
18:41:29,227; -377
18:41:29,230; -355
18:41:29,234; -356
18:41:29,238; -361
18:41:29,242; -361
18:41:29,246; -361
18:41:29,250; -369
18:41:29,254; -369
18:41:29,258; -365
18:41:29,262; -360
18:41:29,266; -358
18:41:29,270; -364
18:41:29,273; -368
18:41:29,277; -363
18:41:29,281; -352
18:41:29,285; -356
18:41:29,289; -358
18:41:29,293; -360
18:41:29,297; -365
18:41:29,301; -355
18:41:29,305; -355
18:41:29,309; -355
18:41:29,312; -349
18:41:29,316; -364
18:41:29,320; -350
18:41:29,324; -354
18:41:29,328; -351
18:41:29,332; -350
18:41:29,336; -352
18:41:29,340; -351
18:41:29,344; -347
18:41:29,348; -358
18:41:29,352; -345
18:41:29,355; -346
18:41:29,359; -351
18:41:29,363; -348
18:41:29,367; -357
18:41:29,371; -361
18:41:29,375; -346
18:41:29,379; -350
18:41:29,383; -341
18:41:29,387; -343
18:41:29,391; -336
18:41:29,395; -331
18:41:29,398; -337
18:41:29,402; -348
18:41:29,406; -344
18:41:29,410; -346
18:41:29,414; -348
18:41:29,418; -335
18:41:29,422; -338
18:41:29,426; -331
18:41:29,430; -343
18:41:29,434; -334
18:41:29,438; -334
18:41:29,441; -343
18:41:29,445; -331
18:41:29,449; -323
18:41:29,453; -316
18:41:29,457; -329
18:41:29,461; -319
18:41:29,465; -307
18:41:29,469; -305
18:41:29,473; -326
18:41:29,477; -319
18:41:29,480; -323
18:41:29,484; -327
18:41:29,488; -322
18:41:29,492; -321
18:41:29,496; -308
18:41:29,500; -297
18:41:29,504; -284
18:41:29,508; -289
18:41:29,512; -257
18:41:29,516; -240
18:41:29,520; -232
18:41:29,523; -200
18:41:29,527; -209
18:41:29,531; -193
18:41:29,535; -173
18:41:29,539; -163
18:41:29,543; -161
18:41:29,547; -166
18:41:29,551; -165
18:41:29,555; -183
18:41:29,559; -208
18:41:29,562; -206
18:41:29,566; -210
18:41:29,570; -213
18:41:29,574; -213
18:41:29,578; -236
18:41:29,582; -258
18:41:29,586; -286
18:41:29,590; -298
18:41:29,594; -299
18:41:29,598; -299
18:41:29,602; -303
18:41:29,605; -297
18:41:29,609; -294
18:41:29,613; -306
18:41:29,617; -304
18:41:29,621; -296
18:41:29,625; -297
18:41:29,629; -289
18:41:29,633; -294
18:41:29,637; -298
18:41:29,641; -312
18:41:29,645; -333
18:41:29,648; -306
18:41:29,652; -229
18:41:29,656; -50
18:41:29,660; 282
18:41:29,664; 777
18:41:29,668; 1385
18:41:29,672; 2009
18:41:29,676; 2366
18:41:29,680; 2482
18:41:29,684; 2280
18:41:29,687; 1764
18:41:29,691; 964
18:41:29,695; 224
18:41:29,699; -163
18:41:29,703; -289
18:41:29,707; -335
18:41:29,711; -189
18:41:29,715; -108
18:41:29,719; -109
18:41:29,723; -230
18:41:29,727; -274
18:41:29,730; -256
18:41:29,734; -236
18:41:29,738; -207
18:41:29,742; -245
18:41:29,746; -272
18:41:29,750; -284
18:41:29,754; -285
18:41:29,758; -220
18:41:29,762; -236
18:41:29,766; -239
18:41:29,770; -245
18:41:29,773; -226
18:41:29,777; -219
18:41:29,781; -216
18:41:29,785; -214
18:41:29,789; -223
18:41:29,793; -201
18:41:29,797; -213
18:41:29,801; -201
18:41:29,805; -186
18:41:29,809; -188
18:41:29,812; -186
18:41:29,816; -185
18:41:29,820; -166
18:41:29,824; -155
18:41:29,828; -145
18:41:29,832; -134
18:41:29,836; -132
18:41:29,840; -125
18:41:29,844; -111
18:41:29,848; -104
18:41:29,852; -94
18:41:29,855; -72
18:41:29,859; -71
18:41:29,863; -49
18:41:29,867; -26
18:41:29,871; -15
18:41:29,875; 11
18:41:29,879; 36
18:41:29,883; 65
18:41:29,887; 91
18:41:29,891; 105
18:41:29,895; 152
18:41:29,898; 183
18:41:29,902; 206
18:41:29,906; 242
18:41:29,910; 267
18:41:29,914; 296
18:41:29,918; 328
18:41:29,922; 362
18:41:29,926; 389
18:41:29,930; 420
18:41:29,934; 446
18:41:29,937; 452
18:41:29,941; 463
18:41:29,945; 441
18:41:29,949; 424
18:41:29,953; 395
18:41:29,957; 352
18:41:29,961; 304
18:41:29,965; 269
18:41:29,969; 194
18:41:29,973; 144
18:41:29,977; 77
18:41:29,980; 44
18:41:29,984; -6
18:41:29,988; -45
18:41:29,992; -64
18:41:29,996; -90
18:41:30,000; -119
18:41:30,004; -135
18:41:30,008; -137
18:41:30,012; -145
18:41:30,016; -159
18:41:30,020; -151
18:41:30,023; -159
18:41:30,027; -166
18:41:30,031; -169
18:41:30,035; -169
18:41:30,039; -171
18:41:30,043; -172
18:41:30,047; -169
18:41:30,051; -162
18:41:30,055; -160
18:41:30,059; -159
18:41:30,062; -153
18:41:30,066; -155
18:41:30,070; -134
18:41:30,074; -137
18:41:30,078; -129
18:41:30,082; -123
18:41:30,086; -129
18:41:30,090; -121
18:41:30,094; -118
18:41:30,098; -113
18:41:30,102; -105
18:41:30,105; -100
18:41:30,109; -92
18:41:30,113; -85
18:41:30,117; -91
18:41:30,121; -84
18:41:30,125; -89
18:41:30,129; -92
18:41:30,133; -89
18:41:30,137; -84
18:41:30,141; -84
18:41:30,145; -89
18:41:30,148; -88
18:41:30,152; -94
18:41:30,156; -101
18:41:30,160; -98
18:41:30,164; -111
18:41:30,168; -113
18:41:30,172; -121
18:41:30,176; -127
18:41:30,180; -127
18:41:30,184; -133
18:41:30,187; -130
18:41:30,191; -131
18:41:30,195; -131
18:41:30,199; -130
18:41:30,203; -136
18:41:30,207; -135
18:41:30,211; -142
18:41:30,215; -143
18:41:30,219; -142
18:41:30,223; -130
18:41:30,227; -137
18:41:30,230; -139
18:41:30,234; -133
18:41:30,238; -143
18:41:30,242; -145
18:41:30,246; -144
18:41:30,250; -150
18:41:30,254; -149
18:41:30,258; -155
18:41:30,262; -148
18:41:30,266; -153
18:41:30,270; -151
18:41:30,273; -150
18:41:30,277; -147
18:41:30,281; -157
18:41:30,285; -153
18:41:30,289; -159
18:41:30,293; -160
18:41:30,297; -159
18:41:30,301; -160
18:41:30,305; -156
18:41:30,309; -147
18:41:30,312; -144
18:41:30,316; -156
18:41:30,320; -162
18:41:30,324; -168
18:41:30,328; -167
18:41:30,332; -174
18:41:30,336; -166
18:41:30,340; -152
18:41:30,344; -160
18:41:30,348; -155
18:41:30,352; -157
18:41:30,355; -164
18:41:30,359; -161
18:41:30,363; -164
18:41:30,367; -163
18:41:30,371; -156
18:41:30,375; -158
18:41:30,379; -154
18:41:30,383; -145
18:41:30,387; -145
18:41:30,391; -158
18:41:30,395; -154
18:41:30,398; -160
18:41:30,402; -156
18:41:30,406; -158
18:41:30,410; -159
18:41:30,414; -154
18:41:30,418; -154
18:41:30,422; -158
18:41:30,426; -154
18:41:30,430; -154
18:41:30,434; -151
18:41:30,438; -149
18:41:30,441; -154
18:41:30,445; -153
18:41:30,449; -144
18:41:30,453; -153
18:41:30,457; -144
18:41:30,461; -144
18:41:30,465; -141
18:41:30,469; -139
18:41:30,473; -142
18:41:30,477; -138
18:41:30,480; -132
18:41:30,484; -135
18:41:30,488; -133
18:41:30,492; -125
18:41:30,496; -123
18:41:30,500; -103
18:41:30,504; -96
18:41:30,508; -87
18:41:30,512; -57
18:41:30,516; -46
18:41:30,520; -29
18:41:30,523; -22
18:41:30,527; 0
18:41:30,531; -5
18:41:30,535; -10
18:41:30,539; -22
18:41:30,543; -35
18:41:30,547; -43
18:41:30,551; -49
18:41:30,555; -47
18:41:30,559; -63
18:41:30,562; -65
18:41:30,566; -83
18:41:30,570; -109
18:41:30,574; -130
18:41:30,578; -148
18:41:30,582; -157
18:41:30,586; -152
18:41:30,590; -158
18:41:30,594; -149
18:41:30,598; -142
18:41:30,602; -144
18:41:30,605; -149
18:41:30,609; -148
18:41:30,613; -146
18:41:30,617; -145
18:41:30,621; -145
18:41:30,625; -149
18:41:30,629; -164
18:41:30,633; -176
18:41:30,637; -152
18:41:30,641; -122
18:41:30,645; -50
18:41:30,648; 120
18:41:30,652; 487
18:41:30,656; 1266
18:41:30,660; 1846
18:41:30,664; 2352
18:41:30,668; 2512
18:41:30,672; 2385
18:41:30,676; 1767
18:41:30,680; 871
18:41:30,684; 64
18:41:30,688; -170
18:41:30,691; -326
18:41:30,695; -332
18:41:30,699; -135
18:41:30,703; -55
18:41:30,707; 27
18:41:30,711; -129
18:41:30,715; -133
18:41:30,719; -157
18:41:30,723; -132
18:41:30,727; -84
18:41:30,730; -104
18:41:30,734; -161
18:41:30,738; -155
18:41:30,742; -103
18:41:30,746; -98
18:41:30,750; -100
18:41:30,754; -114
18:41:30,758; -105
18:41:30,762; -83
18:41:30,766; -90
18:41:30,770; -90
18:41:30,773; -91
18:41:30,777; -83
18:41:30,781; -72
18:41:30,785; -96
18:41:30,789; -79
18:41:30,793; -71
18:41:30,797; -78
18:41:30,801; -62
18:41:30,805; -66
18:41:30,809; -63
18:41:30,812; -50
18:41:30,816; -44
18:41:30,820; -30
18:41:30,824; -17
18:41:30,828; -11
18:41:30,832; -3
18:41:30,836; 5
18:41:30,840; 15
18:41:30,844; 22
18:41:30,848; 37
18:41:30,852; 58
18:41:30,855; 76
18:41:30,859; 92
18:41:30,863; 112
18:41:30,867; 128
18:41:30,871; 147
18:41:30,875; 176
18:41:30,879; 201
18:41:30,883; 230
18:41:30,887; 265
18:41:30,891; 298
18:41:30,895; 330
18:41:30,898; 367
18:41:30,902; 395
18:41:30,906; 426
18:41:30,910; 453
18:41:30,914; 471
18:41:30,918; 495
18:41:30,922; 518
18:41:30,926; 528
18:41:30,930; 533
18:41:30,934; 517
18:41:30,938; 495
18:41:30,941; 464
18:41:30,945; 422
18:41:30,949; 376
18:41:30,953; 334
18:41:30,957; 279
18:41:30,961; 252
18:41:30,965; 199
18:41:30,969; 155
18:41:30,973; 125
18:41:30,977; 88
18:41:30,980; 61
18:41:30,984; 36
18:41:30,988; 14
18:41:30,992; -4
18:41:30,996; -22
18:41:31,000; -43
18:41:31,004; -48
18:41:31,008; -53
18:41:31,012; -56
18:41:31,016; -52
18:41:31,020; -44
18:41:31,023; -61
18:41:31,027; -56
18:41:31,031; -61
18:41:31,035; -65
18:41:31,039; -58
18:41:31,043; -64
18:41:31,047; -55
18:41:31,051; -56
18:41:31,055; -42
18:41:31,059; -51
18:41:31,062; -42
18:41:31,066; -43
18:41:31,070; -40
18:41:31,074; -42
18:41:31,078; -38
18:41:31,082; -30
18:41:31,086; -27
18:41:31,090; -26
18:41:31,094; -27
18:41:31,098; -19
18:41:31,102; -33
18:41:31,105; -17
18:41:31,109; -23
18:41:31,113; -16
18:41:31,117; -31
18:41:31,121; -23
18:41:31,125; -31
18:41:31,129; -27
18:41:31,133; -33
18:41:31,137; -35
18:41:31,141; -29
18:41:31,145; -52
18:41:31,148; -47
18:41:31,152; -66
18:41:31,156; -55
18:41:31,160; -72
18:41:31,164; -63
18:41:31,168; -66
18:41:31,172; -64
18:41:31,176; -79
18:41:31,180; -74
18:41:31,184; -80
18:41:31,188; -84
18:41:31,191; -82
18:41:31,195; -88
18:41:31,199; -78
18:41:31,203; -90
18:41:31,207; -80
18:41:31,211; -86
18:41:31,215; -75
18:41:31,219; -86
18:41:31,223; -83
18:41:31,227; -87
18:41:31,230; -88
18:41:31,234; -95
18:41:31,238; -93
18:41:31,242; -83
18:41:31,246; -96
18:41:31,250; -89
18:41:31,254; -97
18:41:31,258; -84
18:41:31,262; -97
18:41:31,266; -87
18:41:31,270; -90
18:41:31,273; -88
18:41:31,277; -89
18:41:31,281; -86
18:41:31,285; -89
18:41:31,289; -87
18:41:31,293; -79
18:41:31,297; -88
18:41:31,301; -89
18:41:31,305; -89
18:41:31,309; -90
18:41:31,312; -92
18:41:31,316; -102
18:41:31,320; -92
18:41:31,324; -89
18:41:31,328; -101
18:41:31,332; -83
18:41:31,336; -93
18:41:31,340; -83
18:41:31,344; -91
18:41:31,348; -82
18:41:31,352; -96
18:41:31,355; -84
18:41:31,359; -96
18:41:31,363; -92
18:41:31,367; -88
18:41:31,371; -94
18:41:31,375; -83
18:41:31,379; -89
18:41:31,383; -84
18:41:31,387; -96
18:41:31,391; -91
18:41:31,395; -97
18:41:31,398; -89
18:41:31,402; -93
18:41:31,406; -83
18:41:31,410; -86
18:41:31,414; -86
18:41:31,418; -91
18:41:31,422; -86
18:41:31,426; -89
18:41:31,430; -89
18:41:31,434; -77
18:41:31,437; -82
18:41:31,441; -58
18:41:31,445; -70
18:41:31,449; -41
18:41:31,453; -43
18:41:31,457; -21
18:41:31,461; -3
18:41:31,465; 2
18:41:31,469; 20
18:41:31,473; 41
18:41:31,477; 58
18:41:31,480; 38
18:41:31,484; 47
18:41:31,488; 22
18:41:31,492; 13
18:41:31,496; -8
18:41:31,500; -2
18:41:31,504; -7
18:41:31,508; -15
18:41:31,512; -31
18:41:31,516; -53
18:41:31,520; -77
18:41:31,523; -94
18:41:31,527; -96
18:41:31,531; -112
18:41:31,535; -102
18:41:31,539; -105
18:41:31,543; -98
18:41:31,547; -106
18:41:31,551; -100
18:41:31,555; -109
18:41:31,559; -113
18:41:31,562; -115
18:41:31,566; -105
18:41:31,570; -106
18:41:31,574; -108
18:41:31,578; -128
18:41:31,582; -133
18:41:31,586; -92
18:41:31,590; 15
18:41:31,594; 217
18:41:31,598; 590
18:41:31,602; 1139
18:41:31,605; 1671
18:41:31,609; 2227
18:41:31,613; 2430
18:41:31,617; 2524
18:41:31,621; 2120
18:41:31,625; 1340
18:41:31,629; 553
18:41:31,633; 92
18:41:31,637; -244
18:41:31,641; -273
18:41:31,645; -135
18:41:31,648; 49
18:41:31,652; 34
18:41:31,656; -47
18:41:31,660; -57
18:41:31,664; -134
18:41:31,668; -58
18:41:31,672; -68
18:41:31,676; -30
18:41:31,680; -86
18:41:31,684; -66
18:41:31,687; -87
18:41:31,691; -49
18:41:31,695; -72
18:41:31,699; -57
18:41:31,703; -81
18:41:31,707; -62
18:41:31,711; -47
18:41:31,715; -59
18:41:31,719; -64
18:41:31,723; -54
18:41:31,727; -36
18:41:31,730; -49
18:41:31,734; -27
18:41:31,738; -27
18:41:31,742; -35
18:41:31,746; -25
18:41:31,750; -17
18:41:31,754; -8
18:41:31,758; -8
18:41:31,762; 2
18:41:31,766; 11
18:41:31,770; 10
18:41:31,773; 24
18:41:31,777; 33
18:41:31,781; 42
18:41:31,785; 52
18:41:31,789; 61
18:41:31,793; 71
18:41:31,797; 80
18:41:31,801; 110
18:41:31,805; 123
18:41:31,809; 143
18:41:31,812; 159
18:41:31,816; 175
18:41:31,820; 205
18:41:31,824; 226
18:41:31,828; 258
18:41:31,832; 290
18:41:31,836; 328
18:41:31,840; 356
18:41:31,844; 387
18:41:31,848; 413
18:41:31,852; 446
18:41:31,855; 469
18:41:31,859; 496
18:41:31,863; 522
18:41:31,867; 541
18:41:31,871; 561
18:41:31,875; 564
18:41:31,879; 567
18:41:31,883; 542
18:41:31,887; 524
18:41:31,891; 481
18:41:31,895; 450
18:41:31,898; 394
18:41:31,902; 350
18:41:31,906; 298
18:41:31,910; 252
18:41:31,914; 208
18:41:31,918; 173
18:41:31,922; 134
18:41:31,926; 109
18:41:31,930; 69
18:41:31,934; 52
18:41:31,938; 30
18:41:31,941; 19
18:41:31,945; 13
18:41:31,949; -1
18:41:31,953; -8
18:41:31,957; -16
18:41:31,961; -27
18:41:31,965; -30
18:41:31,969; -33
18:41:31,973; -34
18:41:31,977; -34
18:41:31,980; -33
18:41:31,984; -35
18:41:31,988; -31
18:41:31,992; -31
18:41:31,996; -26
18:41:32,000; -19
18:41:32,004; -23
18:41:32,008; -14
18:41:32,012; -4
18:41:32,016; -14
18:41:32,020; -7
18:41:32,023; -2
18:41:32,027; 0
18:41:32,031; -5
18:41:32,035; 1
18:41:32,039; 3
18:41:32,043; 3
18:41:32,047; 5
18:41:32,051; 8
18:41:32,055; 11
18:41:32,059; 14
18:41:32,062; 0
18:41:32,066; 2
18:41:32,070; 2
18:41:32,074; -2
18:41:32,078; -3
18:41:32,082; 0
18:41:32,086; -2
18:41:32,090; -11
18:41:32,094; -19
18:41:32,098; -25
18:41:32,102; -26
18:41:32,105; -34
18:41:32,109; -37
18:41:32,113; -29
18:41:32,117; -40
18:41:32,121; -39
18:41:32,125; -40
18:41:32,129; -49
18:41:32,133; -52
18:41:32,137; -50
18:41:32,141; -51
18:41:32,145; -47
18:41:32,148; -51
18:41:32,152; -46
18:41:32,156; -56
18:41:32,160; -59
18:41:32,164; -60
18:41:32,168; -52
18:41:32,172; -59
18:41:32,176; -65
18:41:32,180; -56
18:41:32,184; -64
18:41:32,188; -60
18:41:32,191; -61
18:41:32,195; -58
18:41:32,199; -53
18:41:32,203; -59
18:41:32,207; -63
18:41:32,211; -58
18:41:32,215; -61
18:41:32,219; -63
18:41:32,223; -63
18:41:32,227; -64
18:41:32,230; -63
18:41:32,234; -61
18:41:32,238; -57
18:41:32,242; -68
18:41:32,246; -63
18:41:32,250; -58
18:41:32,254; -65
18:41:32,258; -70
18:41:32,262; -68
18:41:32,266; -69
18:41:32,270; -67
18:41:32,273; -65
18:41:32,277; -63
18:41:32,281; -58
18:41:32,285; -54
18:41:32,289; -69
18:41:32,293; -63
18:41:32,297; -63
18:41:32,301; -59
18:41:32,305; -59
18:41:32,309; -63
18:41:32,312; -61
18:41:32,316; -62
18:41:32,320; -63
18:41:32,324; -64
18:41:32,328; -59
18:41:32,332; -57
18:41:32,336; -56
18:41:32,340; -55
18:41:32,344; -54
18:41:32,348; -54
18:41:32,352; -57
18:41:32,355; -52
18:41:32,359; -54
18:41:32,363; -57
18:41:32,367; -53
18:41:32,371; -52
18:41:32,375; -60
18:41:32,379; -55
18:41:32,383; -53
18:41:32,387; -51
18:41:32,391; -59
18:41:32,395; -57
18:41:32,398; -51
18:41:32,402; -50
18:41:32,406; -46
18:41:32,410; -33
18:41:32,414; -21
18:41:32,418; -16
18:41:32,422; 0
18:41:32,426; 19
18:41:32,430; 28
18:41:32,434; 41
18:41:32,438; 66
18:41:32,441; 83
18:41:32,445; 75
18:41:32,449; 74
18:41:32,453; 70
18:41:32,457; 49
18:41:32,461; 31
18:41:32,465; 30
18:41:32,469; 26
18:41:32,473; 17
18:41:32,477; 9
18:41:32,480; -11
18:41:32,484; -28
18:41:32,488; -41
18:41:32,492; -58
18:41:32,496; -73
18:41:32,500; -62
18:41:32,504; -76
18:41:32,508; -69
18:41:32,512; -64
18:41:32,516; -70
18:41:32,520; -63
18:41:32,523; -65
18:41:32,527; -65
18:41:32,531; -60
18:41:32,535; -60
18:41:32,539; -62
18:41:32,543; -81
18:41:32,547; -112
18:41:32,551; -74
18:41:32,555; -12
18:41:32,559; 141
18:41:32,562; 436
18:41:32,566; 958
18:41:32,570; 1474
18:41:32,574; 2027
18:41:32,578; 2462
18:41:32,582; 2535
18:41:32,586; 2378
18:41:32,590; 1803
18:41:32,594; 1056
18:41:32,598; 292
18:41:32,602; -138
18:41:32,605; -122
18:41:32,609; -163
18:41:32,613; -79
18:41:32,617; 157
18:41:32,621; 85
18:41:32,625; 28
18:41:32,629; -80
18:41:32,633; -68
18:41:32,637; 28
18:41:32,641; -20
18:41:32,645; -24
18:41:32,648; -72
18:41:32,652; -26
18:41:32,656; -33
18:41:32,660; -48
18:41:32,664; -42
18:41:32,668; -45
18:41:32,672; -29
18:41:32,676; -25
18:41:32,680; -22
18:41:32,684; -17
18:41:32,688; -25
18:41:32,691; -20
18:41:32,695; -16
18:41:32,699; -10
18:41:32,703; -6
18:41:32,707; -1
18:41:32,711; -1
18:41:32,715; 5
18:41:32,719; 14
18:41:32,723; 16
18:41:32,727; 32
18:41:32,730; 28
18:41:32,734; 38
18:41:32,738; 53
18:41:32,742; 58
18:41:32,746; 66
18:41:32,750; 73
18:41:32,754; 84
18:41:32,758; 100
18:41:32,762; 105
18:41:32,766; 122
18:41:32,770; 140
18:41:32,773; 155
18:41:32,777; 176
18:41:32,781; 202
18:41:32,785; 228
18:41:32,789; 255
18:41:32,793; 276
18:41:32,797; 317
18:41:32,801; 349
18:41:32,805; 373
18:41:32,809; 407
18:41:32,812; 446
18:41:32,816; 468
18:41:32,820; 502
18:41:32,824; 529
18:41:32,828; 547
18:41:32,832; 586
18:41:32,836; 590
18:41:32,840; 605
18:41:32,844; 608
18:41:32,848; 598
18:41:32,852; 582
18:41:32,855; 547
18:41:32,859; 499
18:41:32,863; 456
18:41:32,867; 417
18:41:32,871; 350
18:41:32,875; 307
18:41:32,879; 276
18:41:32,883; 232
18:41:32,887; 191
18:41:32,891; 162
18:41:32,895; 133
18:41:32,898; 106
18:41:32,902; 74
18:41:32,906; 60
18:41:32,910; 48
18:41:32,914; 26
18:41:32,918; 31
18:41:32,922; 18
18:41:32,926; 13
18:41:32,930; 10
18:41:32,934; 7
18:41:32,937; 0
18:41:32,941; -1
18:41:32,945; -7
18:41:32,949; -6
18:41:32,953; -6
18:41:32,957; -7
18:41:32,961; 3
18:41:32,965; 1
18:41:32,969; 5
18:41:32,973; 12
18:41:32,977; 4
18:41:32,980; 8
18:41:32,984; 15
18:41:32,988; 11
18:41:32,992; 19
18:41:32,996; 24
18:41:33,000; 30
18:41:33,004; 34
18:41:33,008; 35
18:41:33,012; 39
18:41:33,016; 38
18:41:33,020; 38
18:41:33,023; 39
18:41:33,027; 39
18:41:33,031; 39
18:41:33,035; 33
18:41:33,039; 38
18:41:33,043; 35
18:41:33,047; 31
18:41:33,051; 36
18:41:33,055; 34
18:41:33,059; 24
18:41:33,062; 16
18:41:33,066; 13
18:41:33,070; -1
18:41:33,074; -5
18:41:33,078; -10
18:41:33,082; -12
18:41:33,086; -12
18:41:33,090; -14
18:41:33,094; -14
18:41:33,098; -17
18:41:33,102; -14
18:41:33,105; -19
18:41:33,109; -22
18:41:33,113; -23
18:41:33,117; -29
18:41:33,121; -25
18:41:33,125; -23
18:41:33,129; -25
18:41:33,133; -21
18:41:33,137; -27
18:41:33,141; -18
18:41:33,145; -23
18:41:33,148; -35
18:41:33,152; -30
18:41:33,156; -29
18:41:33,160; -36
18:41:33,164; -38
18:41:33,168; -29
18:41:33,172; -38
18:41:33,176; -41
18:41:33,180; -46
18:41:33,184; -46
18:41:33,187; -50
18:41:33,191; -57
18:41:33,195; -59
18:41:33,199; -53
18:41:33,203; -58
18:41:33,207; -54
18:41:33,211; -53
18:41:33,215; -53
18:41:33,219; -52
18:41:33,223; -55
18:41:33,227; -61
18:41:33,230; -60
18:41:33,234; -58
18:41:33,238; -51
18:41:33,242; -52
18:41:33,246; -47
18:41:33,250; -49
18:41:33,254; -44
18:41:33,258; -44
18:41:33,262; -47
18:41:33,266; -49
18:41:33,270; -41
18:41:33,273; -43
18:41:33,277; -47
18:41:33,281; -44
18:41:33,285; -42
18:41:33,289; -41
18:41:33,293; -41
18:41:33,297; -43
18:41:33,301; -39
18:41:33,305; -38
18:41:33,309; -41
18:41:33,312; -42
18:41:33,316; -43
18:41:33,320; -38
18:41:33,324; -35
18:41:33,328; -32
18:41:33,332; -16
18:41:33,336; -17
18:41:33,340; 2
18:41:33,344; 7
18:41:33,348; 24
18:41:33,352; 36
18:41:33,355; 56
18:41:33,359; 69
18:41:33,363; 81
18:41:33,367; 98
18:41:33,371; 97
18:41:33,375; 81
18:41:33,379; 84
18:41:33,383; 54
18:41:33,387; 46
18:41:33,391; 44
18:41:33,395; 32
18:41:33,398; 29
18:41:33,402; 32
18:41:33,406; 1
18:41:33,410; -16
18:41:33,414; -36
18:41:33,418; -52
18:41:33,422; -59
18:41:33,426; -57
18:41:33,430; -59
18:41:33,434; -50
18:41:33,438; -57
18:41:33,441; -55
18:41:33,445; -55
18:41:33,449; -57
18:41:33,453; -52
18:41:33,457; -52
18:41:33,461; -59
18:41:33,465; -57
18:41:33,469; -86
18:41:33,473; -87
18:41:33,477; -42
18:41:33,480; 39
18:41:33,484; 234
18:41:33,488; 620
18:41:33,492; 1113
18:41:33,496; 1752
18:41:33,500; 2243
18:41:33,504; 2470
18:41:33,508; 2543
18:41:33,512; 2267
18:41:33,516; 1434
18:41:33,520; 841
18:41:33,523; 165
18:41:33,527; -127
18:41:33,531; -203
18:41:33,535; -126
18:41:33,539; 64
18:41:33,543; 88
18:41:33,547; 30
18:41:33,551; 10
18:41:33,555; -99
18:41:33,559; -24
18:41:33,562; -23
18:41:33,566; 30
18:41:33,570; -33
18:41:33,574; -19
18:41:33,578; -46
18:41:33,582; -1
18:41:33,586; -22
18:41:33,590; -5
18:41:33,594; 1
18:41:33,598; -15
18:41:33,602; -14
18:41:33,605; 4
18:41:33,609; 2
18:41:33,613; -17
18:41:33,617; 4
18:41:33,621; 1
18:41:33,625; 10
18:41:33,629; 10
18:41:33,633; 14
18:41:33,637; 13
18:41:33,641; 15
18:41:33,645; 40
18:41:33,648; 34
18:41:33,652; 42
18:41:33,656; 39
18:41:33,660; 56
18:41:33,664; 64
18:41:33,668; 71
18:41:33,672; 79
18:41:33,676; 84
18:41:33,680; 104
18:41:33,684; 112
18:41:33,688; 124
18:41:33,691; 142
18:41:33,695; 156
18:41:33,699; 185
18:41:33,703; 200
18:41:33,707; 218
18:41:33,711; 256
18:41:33,715; 277
18:41:33,719; 310
18:41:33,723; 338
18:41:33,727; 372
18:41:33,730; 401
18:41:33,734; 427
18:41:33,738; 463
18:41:33,742; 486
18:41:33,746; 520
18:41:33,750; 548
18:41:33,754; 574
18:41:33,758; 596
18:41:33,762; 607
18:41:33,766; 619
18:41:33,770; 621
18:41:33,773; 610
18:41:33,777; 586
18:41:33,781; 545
18:41:33,785; 497
18:41:33,789; 450
18:41:33,793; 395
18:41:33,797; 351
18:41:33,801; 293
18:41:33,805; 261
18:41:33,809; 212
18:41:33,812; 178
18:41:33,816; 154
18:41:33,820; 118
18:41:33,824; 99
18:41:33,828; 83
18:41:33,832; 66
18:41:33,836; 49
18:41:33,840; 40
18:41:33,844; 31
18:41:33,848; 22
18:41:33,852; 12
18:41:33,855; 5
18:41:33,859; 16
18:41:33,863; 15
18:41:33,867; 10
18:41:33,871; 6
18:41:33,875; 14
18:41:33,879; 10
18:41:33,883; 7
18:41:33,887; 18
18:41:33,891; 15
18:41:33,895; 20
18:41:33,898; 25
18:41:33,902; 21
18:41:33,906; 30
18:41:33,910; 29
18:41:33,914; 27
18:41:33,918; 34
18:41:33,922; 35
18:41:33,926; 41
18:41:33,930; 39
18:41:33,934; 39
18:41:33,938; 45
18:41:33,941; 46
18:41:33,945; 46
18:41:33,949; 52
18:41:33,953; 49
18:41:33,957; 49
18:41:33,961; 41
18:41:33,965; 39
18:41:33,969; 39
18:41:33,973; 31
18:41:33,977; 24
18:41:33,980; 29
18:41:33,984; 20
18:41:33,988; 15
18:41:33,992; 19
18:41:33,996; 7
18:41:34,000; 0
18:41:34,004; -1
18:41:34,008; -4
18:41:34,012; -11
18:41:34,016; -9
18:41:34,020; -12
18:41:34,023; -15
18:41:34,027; -12
18:41:34,031; -18
18:41:34,035; -18
18:41:34,039; -18
18:41:34,043; -15
18:41:34,047; -17
18:41:34,051; -18
18:41:34,055; -25
18:41:34,059; -23
18:41:34,062; -21
18:41:34,066; -26
18:41:34,070; -24
18:41:34,074; -25
18:41:34,078; -13
18:41:34,082; -10
18:41:34,086; -6
18:41:34,090; 22
18:41:34,094; 40
18:41:34,098; 51
18:41:34,102; 60
18:41:34,105; 68
18:41:34,109; 72
18:41:34,113; 98
18:41:34,117; 94
18:41:34,121; 104
18:41:34,125; 109
18:41:34,129; 97
18:41:34,133; 85
18:41:34,137; 72
18:41:34,141; 69
18:41:34,145; 58
18:41:34,148; 42
18:41:34,152; 37
18:41:34,156; 17
18:41:34,160; -20
18:41:34,164; -30
18:41:34,168; -48
18:41:34,172; -72
18:41:34,176; -62
18:41:34,180; -59
18:41:34,184; -71
18:41:34,188; -58
18:41:34,191; -67
18:41:34,195; -78
18:41:34,199; -77
18:41:34,203; -71
18:41:34,207; -67
18:41:34,211; -65
18:41:34,215; -67
18:41:34,219; -64
18:41:34,223; -68
18:41:34,227; -96
18:41:34,230; -95
18:41:34,234; -59
18:41:34,238; 3
18:41:34,242; 152
18:41:34,246; 485
18:41:34,250; 1196
18:41:34,254; 1725
18:41:34,258; 2365
18:41:34,262; 2650
18:41:34,266; 2565
18:41:34,270; 2228
18:41:34,273; 1305
18:41:34,277; 451
18:41:34,281; -6
18:41:34,285; -177
18:41:34,289; -251
18:41:34,293; -73
18:41:34,297; 38
18:41:34,301; 165
18:41:34,305; -1
18:41:34,309; -127
18:41:34,312; -65
18:41:34,316; -73
18:41:34,320; -5
18:41:34,324; -64
18:41:34,328; -48
18:41:34,332; -85
18:41:34,336; -39
18:41:34,340; -60
18:41:34,344; -37
18:41:34,348; -30
18:41:34,352; -50
18:41:34,355; -19
18:41:34,359; -31
18:41:34,363; -46
18:41:34,367; -40
18:41:34,371; -37
18:41:34,375; -45
18:41:34,379; -24
18:41:34,383; -16
18:41:34,387; -13
18:41:34,391; -7
18:41:34,395; -22
18:41:34,398; 3
18:41:34,402; 1
18:41:34,406; 2
18:41:34,410; 27
18:41:34,414; 19
18:41:34,418; 24
18:41:34,422; 32
18:41:34,426; 44
18:41:34,430; 54
18:41:34,434; 79
18:41:34,438; 83
18:41:34,441; 102
18:41:34,445; 119
18:41:34,449; 135
18:41:34,453; 145
18:41:34,457; 178
18:41:34,461; 207
18:41:34,465; 219
18:41:34,469; 238
18:41:34,473; 267
18:41:34,477; 307
18:41:34,480; 340
18:41:34,484; 383
18:41:34,488; 407
18:41:34,492; 443
18:41:34,496; 477
18:41:34,500; 502
18:41:34,504; 544
18:41:34,508; 567
18:41:34,512; 595
18:41:34,516; 589
18:41:34,520; 601
18:41:34,523; 595
18:41:34,527; 584
18:41:34,531; 553
18:41:34,535; 504
18:41:34,539; 458
18:41:34,543; 401
18:41:34,547; 340
18:41:34,551; 288
18:41:34,555; 242
18:41:34,559; 188
18:41:34,562; 152
18:41:34,566; 131
18:41:34,570; 86
18:41:34,574; 71
18:41:34,578; 42
18:41:34,582; 21
18:41:34,586; 18
18:41:34,590; 5
18:41:34,594; -18
18:41:34,598; -13
18:41:34,602; -25
18:41:34,605; -31
18:41:34,609; -42
18:41:34,613; -34
18:41:34,617; -37
18:41:34,621; -62
18:41:34,625; -60
18:41:34,629; -55
18:41:34,633; -54
18:41:34,637; -54
18:41:34,641; -61
18:41:34,645; -57
18:41:34,648; -60
18:41:34,652; -51
18:41:34,656; -42
18:41:34,660; -22
18:41:34,664; -18
18:41:34,668; -22
18:41:34,672; -23
18:41:34,676; -29
18:41:34,680; -15
18:41:34,684; -19
18:41:34,687; -11
18:41:34,691; 2
18:41:34,695; -8
18:41:34,699; -19
18:41:34,703; -20
18:41:34,707; -22
18:41:34,711; -25
18:41:34,715; -2
18:41:34,719; 6
18:41:34,723; -8
18:41:34,727; -21
18:41:34,730; -17
18:41:34,734; -23
18:41:34,738; -37
18:41:34,742; -34
18:41:34,746; -23
18:41:34,750; -45
18:41:34,754; -56
18:41:34,758; -62
18:41:34,762; -61
18:41:34,766; -55
18:41:34,770; -51
18:41:34,773; -55
18:41:34,777; -52
18:41:34,781; -58
18:41:34,785; -60
18:41:34,789; -70
18:41:34,793; -77
18:41:34,797; -83
18:41:34,801; -81
18:41:34,805; -87
18:41:34,809; -86
18:41:34,812; -96
18:41:34,816; -81
18:41:34,820; -86
18:41:34,824; -90
18:41:34,828; -86
18:41:34,832; -77
18:41:34,836; -84
18:41:34,840; -73
18:41:34,844; -60
18:41:34,848; -25
18:41:34,852; -1
18:41:34,855; 4
18:41:34,859; 23
18:41:34,863; 16
18:41:34,867; 21
18:41:34,871; 29
18:41:34,875; 46
18:41:34,879; 61
18:41:34,883; 42
18:41:34,887; 39
18:41:34,891; 24
18:41:34,895; 2
18:41:34,898; -18
18:41:34,902; -15
18:41:34,906; -14
18:41:34,910; -42
18:41:34,914; -68
18:41:34,918; -75
18:41:34,922; -105
18:41:34,926; -137
18:41:34,930; -138
18:41:34,934; -153
18:41:34,937; -147
18:41:34,941; -148
18:41:34,945; -155
18:41:34,949; -144
18:41:34,953; -151
18:41:34,957; -135
18:41:34,961; -140
18:41:34,965; -132
18:41:34,969; -144
18:41:34,973; -148
18:41:34,977; -155
18:41:34,980; -184
18:41:34,984; -201
18:41:34,988; -161
18:41:34,992; -69
18:41:34,996; 97
18:41:35,000; 444
18:41:35,004; 1164
18:41:35,008; 1689
18:41:35,012; 2320
18:41:35,016; 2603
18:41:35,020; 2671
18:41:35,023; 2320
18:41:35,027; 1439
18:41:35,031; 617
18:41:35,035; 151
18:41:35,039; -225
18:41:35,043; -287
18:41:35,047; -148
18:41:35,051; -67
18:41:35,055; 69
18:41:35,059; -73
18:41:35,062; -191
18:41:35,066; -140
18:41:35,070; -159
18:41:35,074; -166
18:41:35,078; -140
18:41:35,082; -150
18:41:35,086; -188
18:41:35,090; -126
18:41:35,094; -137
18:41:35,098; -120
18:41:35,102; -161
18:41:35,105; -142
18:41:35,109; -153
18:41:35,113; -128
18:41:35,117; -119
18:41:35,121; -138
18:41:35,125; -143
18:41:35,129; -128
18:41:35,133; -144
18:41:35,137; -137
18:41:35,141; -116
18:41:35,145; -108
18:41:35,148; -106
18:41:35,152; -105
18:41:35,156; -102
18:41:35,160; -107
18:41:35,164; -87
18:41:35,168; -72
18:41:35,172; -59
18:41:35,176; -50
18:41:35,180; -43
18:41:35,184; -35
18:41:35,188; -23
18:41:35,191; -15
18:41:35,195; -2
18:41:35,199; 11
18:41:35,203; 24
18:41:35,207; 55
18:41:35,211; 82
18:41:35,215; 89
18:41:35,219; 132
18:41:35,223; 146
18:41:35,227; 171
18:41:35,230; 216
18:41:35,234; 242
18:41:35,238; 287
18:41:35,242; 327
18:41:35,246; 342
18:41:35,250; 385
18:41:35,254; 404
18:41:35,258; 431
18:41:35,262; 478
18:41:35,266; 506
18:41:35,270; 510
18:41:35,273; 524
18:41:35,277; 513
18:41:35,281; 498
18:41:35,285; 451
18:41:35,289; 422
18:41:35,293; 377
18:41:35,297; 301
18:41:35,301; 261
18:41:35,305; 229
18:41:35,309; 164
18:41:35,312; 141
18:41:35,316; 98
18:41:35,320; 22
18:41:35,324; -19
18:41:35,328; -45
18:41:35,332; -60
18:41:35,336; -85
18:41:35,340; -69
18:41:35,344; -85
18:41:35,348; -108
18:41:35,352; -110
18:41:35,355; -120
18:41:35,359; -123
18:41:35,363; -137
18:41:35,367; -137
18:41:35,371; -142
18:41:35,375; -147
18:41:35,379; -138
18:41:35,383; -132
18:41:35,387; -139
18:41:35,391; -136
18:41:35,395; -138
18:41:35,398; -138
18:41:35,402; -129
18:41:35,406; -127
18:41:35,410; -120
18:41:35,414; -121
18:41:35,418; -113
18:41:35,422; -106
18:41:35,426; -126
18:41:35,430; -111
18:41:35,434; -104
18:41:35,438; -120
18:41:35,441; -114
18:41:35,445; -109
18:41:35,449; -101
18:41:35,453; -95
18:41:35,457; -104
18:41:35,461; -106
18:41:35,465; -92
18:41:35,469; -109
18:41:35,473; -110
18:41:35,477; -92
18:41:35,480; -82
18:41:35,484; -84
18:41:35,488; -98
18:41:35,492; -107
18:41:35,496; -120
18:41:35,500; -133
18:41:35,504; -147
18:41:35,508; -146
18:41:35,512; -142
18:41:35,516; -129
18:41:35,520; -136
18:41:35,523; -139
18:41:35,527; -131
18:41:35,531; -150
18:41:35,535; -167
18:41:35,539; -173
18:41:35,543; -158
18:41:35,547; -154
18:41:35,551; -171
18:41:35,555; -152
18:41:35,559; -169
18:41:35,562; -177
18:41:35,566; -185
18:41:35,570; -182
18:41:35,574; -182
18:41:35,578; -188
18:41:35,582; -178
18:41:35,586; -174
18:41:35,590; -183
18:41:35,594; -177
18:41:35,598; -178
18:41:35,602; -172
18:41:35,605; -190
18:41:35,609; -183
18:41:35,613; -196
18:41:35,617; -199
18:41:35,621; -203
18:41:35,625; -187
18:41:35,629; -188
18:41:35,633; -199
18:41:35,637; -193
18:41:35,641; -204
18:41:35,645; -227
18:41:35,648; -191
18:41:35,652; -200
18:41:35,656; -207
18:41:35,660; -193
18:41:35,664; -206
18:41:35,668; -210
18:41:35,672; -217
18:41:35,676; -208
18:41:35,680; -199
18:41:35,684; -191
18:41:35,688; -222
18:41:35,691; -210
18:41:35,695; -205
18:41:35,699; -195
18:41:35,703; -218
18:41:35,707; -203
18:41:35,711; -170
18:41:35,715; -166
18:41:35,719; -125
18:41:35,723; -105
18:41:35,727; -96
18:41:35,730; -79
18:41:35,734; -113
18:41:35,738; -99
18:41:35,742; -102
18:41:35,746; -52
18:41:35,750; -51
18:41:35,754; -74
18:41:35,758; -93
18:41:35,762; -118
18:41:35,766; -122
18:41:35,770; -140
18:41:35,773; -136
18:41:35,777; -125
18:41:35,781; -147
18:41:35,785; -184
18:41:35,789; -210
18:41:35,793; -245
18:41:35,797; -239
18:41:35,801; -252
18:41:35,805; -257
18:41:35,809; -220
18:41:35,812; -223
18:41:35,816; -235
18:41:35,820; -245
18:41:35,824; -252
18:41:35,828; -267
18:41:35,832; -272
18:41:35,836; -250
18:41:35,840; -247
18:41:35,844; -280
18:41:35,848; -311
18:41:35,852; -296
18:41:35,855; -274
18:41:35,859; -206
18:41:35,863; -32
18:41:35,867; 341
18:41:35,871; 1120
18:41:35,875; 1696
18:41:35,879; 2398
18:41:35,883; 2715
18:41:35,887; 2625
18:41:35,891; 2253
18:41:35,895; 1370
18:41:35,898; 559
18:41:35,902; -44
18:41:35,906; -323
18:41:35,910; -408
18:41:35,914; -338
18:41:35,918; -155
18:41:35,922; -128
18:41:35,926; -183
18:41:35,930; -207
18:41:35,934; -308
18:41:35,938; -312
18:41:35,941; -231
18:41:35,945; -213
18:41:35,949; -271
18:41:35,953; -290
18:41:35,957; -250
18:41:35,961; -237
18:41:35,965; -265
18:41:35,969; -202
18:41:35,973; -252
18:41:35,977; -221
18:41:35,980; -216
18:41:35,984; -240
18:41:35,988; -246
18:41:35,992; -248
18:41:35,996; -241
18:41:36,000; -243
18:41:36,004; -223
18:41:36,008; -211
18:41:36,012; -193
18:41:36,016; -216
18:41:36,020; -211
18:41:36,023; -210
18:41:36,027; -188
18:41:36,031; -179
18:41:36,035; -171
18:41:36,039; -146
18:41:36,043; -133
18:41:36,047; -153
18:41:36,051; -118
18:41:36,055; -119
18:41:36,059; -107
18:41:36,062; -87
18:41:36,066; -70
18:41:36,070; -79
18:41:36,074; -46
18:41:36,078; -8
18:41:36,082; 19
18:41:36,086; 27
18:41:36,090; 55
18:41:36,094; 96
18:41:36,098; 121
18:41:36,102; 155
18:41:36,105; 204
18:41:36,109; 230
18:41:36,113; 271
18:41:36,117; 330
18:41:36,121; 326
18:41:36,125; 367
18:41:36,129; 408
18:41:36,133; 433
18:41:36,137; 449
18:41:36,141; 477
18:41:36,145; 477
18:41:36,148; 458
18:41:36,152; 426
18:41:36,156; 368
18:41:36,160; 318
18:41:36,164; 297
18:41:36,168; 224
18:41:36,172; 173
18:41:36,176; 127
18:41:36,180; 61
18:41:36,184; 32
18:41:36,187; -31
18:41:36,191; -53
18:41:36,195; -90
18:41:36,199; -116
18:41:36,203; -132
18:41:36,207; -158
18:41:36,211; -145
18:41:36,215; -172
18:41:36,219; -184
18:41:36,223; -190
18:41:36,227; -206
18:41:36,230; -208
18:41:36,234; -186
18:41:36,238; -179
18:41:36,242; -211
18:41:36,246; -192
18:41:36,250; -193
18:41:36,254; -229
18:41:36,258; -223
18:41:36,262; -213
18:41:36,266; -209
18:41:36,270; -190
18:41:36,273; -212
18:41:36,277; -198
18:41:36,281; -202
18:41:36,285; -182
18:41:36,289; -147
18:41:36,293; -191
18:41:36,297; -172
18:41:36,301; -182
18:41:36,305; -207
18:41:36,309; -218
18:41:36,312; -177
18:41:36,316; -161
18:41:36,320; -159
18:41:36,324; -161
18:41:36,328; -174
18:41:36,332; -164
18:41:36,336; -181
18:41:36,340; -154
18:41:36,344; -168
18:41:36,348; -145
18:41:36,352; -186
18:41:36,355; -181
18:41:36,359; -177
18:41:36,363; -213
18:41:36,367; -211
18:41:36,371; -177
18:41:36,375; -193
18:41:36,379; -203
18:41:36,383; -207
18:41:36,387; -196
18:41:36,391; -227
18:41:36,395; -229
18:41:36,398; -232
18:41:36,402; -220
18:41:36,406; -226
18:41:36,410; -188
18:41:36,414; -235
18:41:36,418; -211
18:41:36,422; -234
18:41:36,426; -231
18:41:36,430; -229
18:41:36,434; -250
18:41:36,437; -229
18:41:36,441; -264
18:41:36,445; -243
18:41:36,449; -240
18:41:36,453; -256
18:41:36,457; -214
18:41:36,461; -254
18:41:36,465; -250
18:41:36,469; -251
18:41:36,473; -259
18:41:36,477; -235
18:41:36,480; -265
18:41:36,484; -254
18:41:36,488; -249
18:41:36,492; -279
18:41:36,496; -272
18:41:36,500; -235
18:41:36,504; -263
18:41:36,508; -242
18:41:36,512; -249
18:41:36,516; -281
18:41:36,520; -249
18:41:36,523; -255
18:41:36,527; -276
18:41:36,531; -262
18:41:36,535; -280
18:41:36,539; -260
18:41:36,543; -265
18:41:36,547; -281
18:41:36,551; -280
18:41:36,555; -249
18:41:36,559; -245
18:41:36,562; -268
18:41:36,566; -271
18:41:36,570; -270
18:41:36,574; -283
18:41:36,578; -271
18:41:36,582; -237
18:41:36,586; -257
18:41:36,590; -223
18:41:36,594; -255
18:41:36,598; -307
18:41:36,602; -295
18:41:36,605; -288
18:41:36,609; -269
18:41:36,613; -267
18:41:36,617; -250
18:41:36,621; -260
18:41:36,625; -261
18:41:36,629; -285
18:41:36,633; -271
18:41:36,637; -226
18:41:36,641; -248
18:41:36,645; -203
18:41:36,648; -181
18:41:36,652; -192
18:41:36,656; -186
18:41:36,660; -176
18:41:36,664; -140
18:41:36,668; -135
18:41:36,672; -142
18:41:36,676; -100
18:41:36,680; -114
18:41:36,684; -138
18:41:36,688; -148
18:41:36,691; -154
18:41:36,695; -155
18:41:36,699; -152
18:41:36,703; -163
18:41:36,707; -198
18:41:36,711; -197
18:41:36,715; -210
18:41:36,719; -279
18:41:36,723; -289
18:41:36,727; -287
18:41:36,730; -304
18:41:36,734; -313
18:41:36,738; -309
18:41:36,742; -321
18:41:36,746; -292
18:41:36,750; -281
18:41:36,754; -328
18:41:36,758; -302
18:41:36,762; -282
18:41:36,766; -299
18:41:36,770; -306
18:41:36,773; -309
18:41:36,777; -340
18:41:36,781; -328
18:41:36,785; -320
18:41:36,789; -240
18:41:36,793; -50
18:41:36,797; 324
18:41:36,801; 891
18:41:36,805; 1461
18:41:36,809; 2089
18:41:36,812; 2454
18:41:36,816; 2541
18:41:36,820; 2322
18:41:36,824; 1753
18:41:36,828; 926
18:41:36,832; 336
18:41:36,836; -134
18:41:36,840; -407
18:41:36,844; -393
18:41:36,848; -274
18:41:36,852; -127
18:41:36,855; -152
18:41:36,859; -213
18:41:36,863; -206
18:41:36,867; -286
18:41:36,871; -299
18:41:36,875; -236
18:41:36,879; -285
18:41:36,883; -269
18:41:36,887; -305
18:41:36,891; -265
18:41:36,895; -284
18:41:36,898; -262
18:41:36,902; -255
18:41:36,906; -241
18:41:36,910; -246
18:41:36,914; -245
18:41:36,918; -259
18:41:36,922; -262
18:41:36,926; -223
18:41:36,930; -232
18:41:36,934; -247
18:41:36,938; -238
18:41:36,941; -240
18:41:36,945; -224
18:41:36,949; -229
18:41:36,953; -210
18:41:36,957; -177
18:41:36,961; -184
18:41:36,965; -199
18:41:36,969; -197
18:41:36,973; -170
18:41:36,977; -164
18:41:36,980; -162
18:41:36,984; -152
18:41:36,988; -122
18:41:36,992; -111
18:41:36,996; -95
18:41:37,000; -101
18:41:37,004; -62
18:41:37,008; -19
18:41:37,012; -22
18:41:37,016; -12
18:41:37,020; 21
18:41:37,023; 73
18:41:37,027; 80
18:41:37,031; 112
18:41:37,035; 158
18:41:37,039; 203
18:41:37,043; 230
18:41:37,047; 263
18:41:37,051; 289
18:41:37,055; 357
18:41:37,059; 373
18:41:37,062; 386
18:41:37,066; 424
18:41:37,070; 424
18:41:37,074; 441
18:41:37,078; 415
18:41:37,082; 403
18:41:37,086; 364
18:41:37,090; 307
18:41:37,094; 264
18:41:37,098; 212
18:41:37,102; 172
18:41:37,105; 98
18:41:37,109; 50
18:41:37,113; 22
18:41:37,117; -40
18:41:37,121; -73
18:41:37,125; -107
18:41:37,129; -129
18:41:37,133; -142
18:41:37,137; -155
18:41:37,141; -181
18:41:37,145; -175
18:41:37,148; -194
18:41:37,152; -218
18:41:37,156; -215
18:41:37,160; -219
18:41:37,164; -208
18:41:37,168; -231
18:41:37,172; -223
18:41:37,176; -230
18:41:37,180; -237
18:41:37,184; -224
18:41:37,188; -217
18:41:37,191; -225
18:41:37,195; -218
18:41:37,199; -217
18:41:37,203; -218
18:41:37,207; -208
18:41:37,211; -205
18:41:37,215; -215
18:41:37,219; -210
18:41:37,223; -213
18:41:37,227; -223
18:41:37,230; -208
18:41:37,234; -205
18:41:37,238; -190
18:41:37,242; -202
18:41:37,246; -186
18:41:37,250; -191
18:41:37,254; -189
18:41:37,258; -192
18:41:37,262; -188
18:41:37,266; -184
18:41:37,270; -174
18:41:37,273; -190
18:41:37,277; -182
18:41:37,281; -175
18:41:37,285; -183
18:41:37,289; -183
18:41:37,293; -185
18:41:37,297; -201
18:41:37,301; -189
18:41:37,305; -198
18:41:37,309; -218
18:41:37,312; -211
18:41:37,316; -210
18:41:37,320; -212
18:41:37,324; -225
18:41:37,328; -233
18:41:37,332; -219
18:41:37,336; -208
18:41:37,340; -217
18:41:37,344; -230
18:41:37,348; -223
18:41:37,352; -228
18:41:37,355; -234
18:41:37,359; -234
18:41:37,363; -226
18:41:37,367; -240
18:41:37,371; -242
18:41:37,375; -237
18:41:37,379; -247
18:41:37,383; -244
18:41:37,387; -238
18:41:37,391; -234
18:41:37,395; -243
18:41:37,398; -252
18:41:37,402; -253
18:41:37,406; -248
18:41:37,410; -239
18:41:37,414; -249
18:41:37,418; -234
18:41:37,422; -237
18:41:37,426; -252
18:41:37,430; -252
18:41:37,434; -251
18:41:37,438; -251
18:41:37,441; -251
18:41:37,445; -241
18:41:37,449; -245
18:41:37,453; -253
18:41:37,457; -253
18:41:37,461; -250
18:41:37,465; -251
18:41:37,469; -250
18:41:37,473; -244
18:41:37,477; -245
18:41:37,480; -248
18:41:37,484; -245
18:41:37,488; -248
18:41:37,492; -254
18:41:37,496; -245
18:41:37,500; -250
18:41:37,504; -251
18:41:37,508; -243
18:41:37,512; -246
18:41:37,516; -256
18:41:37,520; -255
18:41:37,523; -251
18:41:37,527; -248
18:41:37,531; -256
18:41:37,535; -238
18:41:37,539; -243
18:41:37,543; -245
18:41:37,547; -250
18:41:37,551; -236
18:41:37,555; -245
18:41:37,559; -248
18:41:37,562; -241
18:41:37,566; -247
18:41:37,570; -236
18:41:37,574; -235
18:41:37,578; -231
18:41:37,582; -229
18:41:37,586; -247
18:41:37,590; -246
18:41:37,594; -237
18:41:37,598; -225
18:41:37,602; -229
18:41:37,605; -235
18:41:37,609; -232
18:41:37,613; -238
18:41:37,617; -251
18:41:37,621; -246
18:41:37,625; -237
18:41:37,629; -240
18:41:37,633; -242
18:41:37,637; -245
18:41:37,641; -240
18:41:37,645; -234
18:41:37,648; -237
18:41:37,652; -241
18:41:37,656; -223
18:41:37,660; -216
18:41:37,664; -202
18:41:37,668; -163
18:41:37,672; -161
18:41:37,676; -145
18:41:37,680; -123
18:41:37,684; -125
18:41:37,687; -110
18:41:37,691; -73
18:41:37,695; -81
18:41:37,699; -76
18:41:37,703; -90
18:41:37,707; -110
18:41:37,711; -126
18:41:37,715; -127
18:41:37,719; -128
18:41:37,723; -135
18:41:37,727; -144
18:41:37,730; -155
18:41:37,734; -188
18:41:37,738; -216
18:41:37,742; -224
18:41:37,746; -230
18:41:37,750; -237
18:41:37,754; -240
18:41:37,758; -241
18:41:37,762; -230
18:41:37,766; -237
18:41:37,770; -242
18:41:37,773; -236
18:41:37,777; -239
18:41:37,781; -233
18:41:37,785; -235
18:41:37,789; -228
18:41:37,793; -237
18:41:37,797; -271
18:41:37,801; -275
18:41:37,805; -227
18:41:37,809; -109
18:41:37,812; 67
18:41:37,816; 432
18:41:37,820; 970
18:41:37,824; 1619
18:41:37,828; 2136
18:41:37,832; 2557
18:41:37,836; 2512
18:41:37,840; 2267
18:41:37,844; 1441
18:41:37,848; 632
18:41:37,852; 11
18:41:37,855; -280
18:41:37,859; -359
18:41:37,863; -279
18:41:37,867; -93
18:41:37,871; -71
18:41:37,875; -132
18:41:37,879; -154
18:41:37,883; -252
18:41:37,887; -255
18:41:37,891; -175
18:41:37,895; -222
18:41:37,898; -215
18:41:37,902; -206
18:41:37,906; -217
18:41:37,910; -209
18:41:37,914; -187
18:41:37,918; -197
18:41:37,922; -225
18:41:37,926; -191
18:41:37,930; -194
18:41:37,934; -205
18:41:37,937; -204
18:41:37,941; -206
18:41:37,945; -176
18:41:37,949; -158
18:41:37,953; -169
18:41:37,957; -156
18:41:37,961; -163
18:41:37,965; -155
18:41:37,969; -147
18:41:37,973; -139
18:41:37,977; -127
18:41:37,980; -122
18:41:37,984; -127
18:41:37,988; -102
18:41:37,992; -104
18:41:37,996; -92
18:41:38,000; -72
18:41:38,004; -72
18:41:38,008; -62
18:41:38,012; -41
18:41:38,016; -25
18:41:38,020; -8
18:41:38,023; 7
18:41:38,027; 26
18:41:38,031; 46
18:41:38,035; 68
18:41:38,039; 88
18:41:38,043; 123
18:41:38,047; 148
18:41:38,051; 188
18:41:38,055; 224
18:41:38,059; 253
18:41:38,062; 299
18:41:38,066; 340
18:41:38,070; 364
18:41:38,074; 393
18:41:38,078; 421
18:41:38,082; 452
18:41:38,086; 462
18:41:38,090; 486
18:41:38,094; 502
18:41:38,098; 508
18:41:38,102; 500
18:41:38,105; 477
18:41:38,109; 451
18:41:38,113; 401
18:41:38,117; 348
18:41:38,121; 301
18:41:38,125; 244
18:41:38,129; 203
18:41:38,133; 159
18:41:38,137; 115
18:41:38,141; 78
18:41:38,145; 41
18:41:38,148; 21
18:41:38,152; -7
18:41:38,156; -28
18:41:38,160; -42
18:41:38,164; -56
18:41:38,168; -76
18:41:38,172; -93
18:41:38,176; -97
18:41:38,180; -96
18:41:38,184; -105
18:41:38,187; -106
18:41:38,191; -107
18:41:38,195; -111
18:41:38,199; -115
18:41:38,203; -117
18:41:38,207; -115
18:41:38,211; -111
18:41:38,215; -101
18:41:38,219; -104
18:41:38,223; -97
18:41:38,227; -88
18:41:38,230; -91
18:41:38,234; -89
18:41:38,238; -85
18:41:38,242; -83
18:41:38,246; -76
18:41:38,250; -70
18:41:38,254; -70
18:41:38,258; -62
18:41:38,262; -59
18:41:38,266; -65
18:41:38,270; -61
18:41:38,273; -59
18:41:38,277; -63
18:41:38,281; -54
18:41:38,285; -56
18:41:38,289; -58
18:41:38,293; -64
18:41:38,297; -63
18:41:38,301; -63
18:41:38,305; -68
18:41:38,309; -71
18:41:38,312; -73
18:41:38,316; -73
18:41:38,320; -78
18:41:38,324; -80
18:41:38,328; -83
18:41:38,332; -91
18:41:38,336; -90
18:41:38,340; -93
18:41:38,344; -101
18:41:38,348; -104
18:41:38,352; -106
18:41:38,355; -105
18:41:38,359; -110
18:41:38,363; -108
18:41:38,367; -108
18:41:38,371; -115
18:41:38,375; -111
18:41:38,379; -122
18:41:38,383; -125
18:41:38,387; -117
18:41:38,391; -125
18:41:38,395; -122
18:41:38,398; -120
18:41:38,402; -126
18:41:38,406; -127
18:41:38,410; -118
18:41:38,414; -126
18:41:38,418; -123
18:41:38,422; -127
18:41:38,426; -127
18:41:38,430; -128
18:41:38,434; -129
18:41:38,438; -127
18:41:38,441; -127
18:41:38,445; -126
18:41:38,449; -126
18:41:38,453; -130
18:41:38,457; -129
18:41:38,461; -132
18:41:38,465; -132
18:41:38,469; -137
18:41:38,473; -138
18:41:38,477; -134
18:41:38,480; -128
18:41:38,484; -130
18:41:38,488; -133
18:41:38,492; -136
18:41:38,496; -130
18:41:38,500; -136
18:41:38,504; -132
18:41:38,508; -134
18:41:38,512; -134
18:41:38,516; -136
18:41:38,520; -134
18:41:38,523; -135
18:41:38,527; -132
18:41:38,531; -135
18:41:38,535; -136
18:41:38,539; -144
18:41:38,543; -146
18:41:38,547; -145
18:41:38,551; -134
18:41:38,555; -135
18:41:38,559; -137
18:41:38,562; -135
18:41:38,566; -140
18:41:38,570; -140
18:41:38,574; -137
18:41:38,578; -134
18:41:38,582; -132
18:41:38,586; -137
18:41:38,590; -136
18:41:38,594; -138
18:41:38,598; -139
18:41:38,602; -139
18:41:38,605; -134
18:41:38,609; -133
18:41:38,613; -136
18:41:38,617; -141
18:41:38,621; -134
18:41:38,625; -136
18:41:38,629; -136
18:41:38,633; -137
18:41:38,637; -130
18:41:38,641; -139
18:41:38,645; -136
18:41:38,648; -130
18:41:38,652; -129
18:41:38,656; -127
18:41:38,660; -123
18:41:38,664; -112
18:41:38,668; -100
18:41:38,672; -87
18:41:38,676; -80
18:41:38,680; -62
18:41:38,684; -49
18:41:38,688; -37
18:41:38,691; -28
18:41:38,695; 1
18:41:38,699; 13
18:41:38,703; 5
18:41:38,707; 1
18:41:38,711; -11
18:41:38,715; -32
18:41:38,719; -37
18:41:38,723; -42
18:41:38,727; -46
18:41:38,730; -51
18:41:38,734; -57
18:41:38,738; -86
18:41:38,742; -106
18:41:38,746; -129
18:41:38,750; -142
18:41:38,754; -142
18:41:38,758; -151
18:41:38,762; -141
18:41:38,766; -143
18:41:38,770; -143
18:41:38,773; -141
18:41:38,777; -138
18:41:38,781; -139
18:41:38,785; -135
18:41:38,789; -134
18:41:38,793; -136
18:41:38,797; -145
18:41:38,801; -168
18:41:38,805; -185
18:41:38,809; -156
18:41:38,812; -94
18:41:38,816; 58
18:41:38,820; 392
18:41:38,824; 918
18:41:38,828; 1447
18:41:38,832; 2016
18:41:38,836; 2451
18:41:38,840; 2515
18:41:38,844; 2259
18:41:38,848; 1699
18:41:38,852; 783
18:41:38,855; 100
18:41:38,859; -234
18:41:38,863; -365
18:41:38,867; -298
18:41:38,871; -68
18:41:38,875; -19
18:41:38,879; 40
18:41:38,883; -123
18:41:38,887; -103
18:41:38,891; -121
18:41:38,895; -105
18:41:38,898; -64
18:41:38,902; -154
18:41:38,906; -137
18:41:38,910; -155
18:41:38,914; -98
18:41:38,918; -125
18:41:38,922; -114
18:41:38,926; -108
18:41:38,930; -122
18:41:38,934; -118
18:41:38,938; -99
18:41:38,941; -104
18:41:38,945; -101
18:41:38,949; -102
18:41:38,953; -95
18:41:38,957; -86
18:41:38,961; -93
18:41:38,965; -92
18:41:38,969; -77
18:41:38,973; -73
18:41:38,977; -63
18:41:38,980; -56
18:41:38,984; -58
18:41:38,988; -39
18:41:38,992; -43
18:41:38,996; -33
18:41:39,000; -17
18:41:39,004; -12
18:41:39,008; -4
18:41:39,012; 12
18:41:39,016; 23
18:41:39,020; 26
18:41:39,023; 48
18:41:39,027; 68
18:41:39,031; 83
18:41:39,035; 104
18:41:39,039; 118
18:41:39,043; 140
18:41:39,047; 173
18:41:39,051; 196
18:41:39,055; 234
18:41:39,059; 266
18:41:39,062; 294
18:41:39,066; 333
18:41:39,070; 357
18:41:39,074; 387
18:41:39,078; 423
18:41:39,082; 445
18:41:39,086; 476
18:41:39,090; 497
18:41:39,094; 524
18:41:39,098; 532
18:41:39,102; 545
18:41:39,105; 537
18:41:39,109; 518
18:41:39,113; 497
18:41:39,117; 452
18:41:39,121; 400
18:41:39,125; 360
18:41:39,129; 298
18:41:39,133; 250
18:41:39,137; 215
18:41:39,141; 170
18:41:39,145; 132
18:41:39,148; 105
18:41:39,152; 58
18:41:39,156; 40
18:41:39,160; 9
18:41:39,164; -9
18:41:39,168; -25
18:41:39,172; -40
18:41:39,176; -49
18:41:39,180; -54
18:41:39,184; -62
18:41:39,188; -64
18:41:39,191; -74
18:41:39,195; -71
18:41:39,199; -81
18:41:39,203; -80
18:41:39,207; -76
18:41:39,211; -80
18:41:39,215; -73
18:41:39,219; -73
18:41:39,223; -71
18:41:39,227; -63
18:41:39,230; -65
18:41:39,234; -58
18:41:39,238; -55
18:41:39,242; -57
18:41:39,246; -58
18:41:39,250; -49
18:41:39,254; -51
18:41:39,258; -47
18:41:39,262; -51
18:41:39,266; -50
18:41:39,270; -48
18:41:39,273; -53
18:41:39,277; -49
18:41:39,281; -48
18:41:39,285; -50
18:41:39,289; -48
18:41:39,293; -55
18:41:39,297; -58
18:41:39,301; -60
18:41:39,305; -63
18:41:39,309; -69
18:41:39,312; -70
18:41:39,316; -76
18:41:39,320; -81
18:41:39,324; -83
18:41:39,328; -92
18:41:39,332; -98
18:41:39,336; -104
18:41:39,340; -102
18:41:39,344; -102
18:41:39,348; -109
18:41:39,352; -109
18:41:39,355; -105
18:41:39,359; -115
18:41:39,363; -120
18:41:39,367; -119
18:41:39,371; -122
18:41:39,375; -121
18:41:39,379; -126
18:41:39,383; -128
18:41:39,387; -123
18:41:39,391; -132
18:41:39,395; -134
18:41:39,398; -131
18:41:39,402; -137
18:41:39,406; -132
18:41:39,410; -133
18:41:39,414; -133
18:41:39,418; -137
18:41:39,422; -140
18:41:39,426; -138
18:41:39,430; -138
18:41:39,434; -143
18:41:39,437; -141
18:41:39,441; -138
18:41:39,445; -142
18:41:39,449; -147
18:41:39,453; -145
18:41:39,457; -150
18:41:39,461; -149
18:41:39,465; -149
18:41:39,469; -147
18:41:39,473; -138
18:41:39,477; -143
18:41:39,480; -144
18:41:39,484; -144
18:41:39,488; -149
18:41:39,492; -152
18:41:39,496; -146
18:41:39,500; -150
18:41:39,504; -147
18:41:39,508; -149
18:41:39,512; -147
18:41:39,516; -144
18:41:39,520; -146
18:41:39,523; -145
18:41:39,527; -145
18:41:39,531; -152
18:41:39,535; -152
18:41:39,539; -145
18:41:39,543; -146
18:41:39,547; -147
18:41:39,551; -151
18:41:39,555; -151
18:41:39,559; -153
18:41:39,562; -149
18:41:39,566; -149
18:41:39,570; -150
18:41:39,574; -143
18:41:39,578; -139
18:41:39,582; -132
18:41:39,586; -114
18:41:39,590; -87
18:41:39,594; -74
18:41:39,598; -71
18:41:39,602; -48
18:41:39,605; -45
18:41:39,609; -37
18:41:39,613; -15
18:41:39,617; -9
18:41:39,621; -9
18:41:39,625; -15
18:41:39,629; -29
18:41:39,633; -46
18:41:39,637; -51
18:41:39,641; -64
18:41:39,645; -71
18:41:39,648; -75
18:41:39,652; -91
18:41:39,656; -110
18:41:39,660; -131
18:41:39,664; -153
18:41:39,668; -159
18:41:39,672; -168
18:41:39,676; -174
18:41:39,680; -167
18:41:39,684; -163
18:41:39,687; -171
18:41:39,691; -174
18:41:39,695; -171
18:41:39,699; -171
18:41:39,703; -175
18:41:39,707; -168
18:41:39,711; -162
18:41:39,715; -164
18:41:39,719; -178
18:41:39,723; -209
18:41:39,727; -177
18:41:39,730; -119
18:41:39,734; 30
18:41:39,738; 280
18:41:39,742; 784
18:41:39,746; 1427
18:41:39,750; 1928
18:41:39,754; 2343
18:41:39,758; 2441
18:41:39,762; 2187
18:41:39,766; 1511
18:41:39,770; 672
18:41:39,773; 33
18:41:39,777; -269
18:41:39,781; -375
18:41:39,785; -309
18:41:39,789; -105
18:41:39,793; -67
18:41:39,797; -14
18:41:39,801; -158
18:41:39,805; -137
18:41:39,809; -155
18:41:39,812; -142
18:41:39,816; -106
18:41:39,820; -186
18:41:39,824; -170
18:41:39,828; -186
18:41:39,832; -135
18:41:39,836; -160
18:41:39,840; -149
18:41:39,844; -144
18:41:39,848; -156
18:41:39,852; -124
18:41:39,855; -137
18:41:39,859; -129
18:41:39,863; -127
18:41:39,867; -136
18:41:39,871; -116
18:41:39,875; -123
18:41:39,879; -118
18:41:39,883; -104
18:41:39,887; -99
18:41:39,891; -106
18:41:39,895; -91
18:41:39,898; -93
18:41:39,902; -82
18:41:39,906; -72
18:41:39,910; -64
18:41:39,914; -55
18:41:39,918; -43
18:41:39,922; -41
18:41:39,926; -31
18:41:39,930; -15
18:41:39,934; -3
18:41:39,938; 3
18:41:39,941; 22
18:41:39,945; 35
18:41:39,949; 51
18:41:39,953; 78
18:41:39,957; 100
18:41:39,961; 123
18:41:39,965; 146
18:41:39,969; 170
18:41:39,973; 202
18:41:39,977; 235
18:41:39,980; 276
18:41:39,984; 306
18:41:39,988; 334
18:41:39,992; 372
18:41:39,996; 395
18:41:40,000; 419
18:41:40,004; 445
18:41:40,008; 476
18:41:40,012; 489
18:41:40,016; 498
18:41:40,020; 509
18:41:40,023; 500
18:41:40,027; 485
18:41:40,031; 465
18:41:40,035; 412
18:41:40,039; 367
18:41:40,043; 315
18:41:40,047; 270
18:41:40,051; 226
18:41:40,055; 170
18:41:40,059; 128
18:41:40,062; 104
18:41:40,066; 53
18:41:40,070; 27
18:41:40,074; 8
18:41:40,078; -11
18:41:40,082; -29
18:41:40,086; -57
18:41:40,090; -70
18:41:40,094; -75
18:41:40,098; -84
18:41:40,102; -91
18:41:40,105; -95
18:41:40,109; -96
18:41:40,113; -97
18:41:40,117; -101
18:41:40,121; -103
18:41:40,125; -101
18:41:40,129; -99
18:41:40,133; -104
18:41:40,137; -92
18:41:40,141; -91
18:41:40,145; -93
18:41:40,148; -87
18:41:40,152; -84
18:41:40,156; -89
18:41:40,160; -85
18:41:40,164; -79
18:41:40,168; -78
18:41:40,172; -76
18:41:40,176; -77
18:41:40,180; -74
18:41:40,184; -77
18:41:40,188; -74
18:41:40,191; -73
18:41:40,195; -70
18:41:40,199; -77
18:41:40,203; -73
18:41:40,207; -76
18:41:40,211; -89
18:41:40,215; -85
18:41:40,219; -89
18:41:40,223; -87
18:41:40,227; -94
18:41:40,230; -97
18:41:40,234; -96
18:41:40,238; -105
18:41:40,242; -110
18:41:40,246; -115
18:41:40,250; -118
18:41:40,254; -117
18:41:40,258; -125
18:41:40,262; -122
18:41:40,266; -129
18:41:40,270; -138
18:41:40,273; -139
18:41:40,277; -142
18:41:40,281; -136
18:41:40,285; -137
18:41:40,289; -137
18:41:40,293; -136
18:41:40,297; -141
18:41:40,301; -133
18:41:40,305; -111
18:41:40,309; -85
18:41:40,312; -73
18:41:40,316; -64
18:41:40,320; -49
18:41:40,324; -49
18:41:40,328; -36
18:41:40,332; -18
18:41:40,336; -6
18:41:40,340; 2
18:41:40,344; -3
18:41:40,348; -26
18:41:40,352; -34
18:41:40,355; -44
18:41:40,359; -62
18:41:40,363; -66
18:41:40,367; -77
18:41:40,371; -100
18:41:40,375; -135
18:41:40,379; -148
18:41:40,383; -172
18:41:40,387; -175
18:41:40,391; -195
18:41:40,395; -179
18:41:40,398; -176
18:41:40,402; -186
18:41:40,406; -182
18:41:40,410; -180
18:41:40,414; -185
18:41:40,418; -183
18:41:40,422; -188
18:41:40,426; -188
18:41:40,430; -183
18:41:40,434; -183
18:41:40,438; -193
18:41:40,441; -215
18:41:40,445; -225
18:41:40,449; -196
18:41:40,453; -132
18:41:40,457; 20
18:41:40,461; 353
18:41:40,465; 1063
18:41:40,469; 1591
18:41:40,473; 2051
18:41:40,477; 2521
18:41:40,480; 2366
18:41:40,484; 2034
18:41:40,488; 1281
18:41:40,492; 568
18:41:40,496; 1
18:41:40,500; -279
18:41:40,504; -358
18:41:40,508; -279
18:41:40,512; -103
18:41:40,516; -82
18:41:40,520; -50
18:41:40,523; -168
18:41:40,527; -143
18:41:40,531; -154
18:41:40,535; -147
18:41:40,539; -120
18:41:40,543; -187
18:41:40,547; -171
18:41:40,551; -183
18:41:40,555; -142
18:41:40,559; -164
18:41:40,562; -155
18:41:40,566; -150
18:41:40,570; -160
18:41:40,574; -133
18:41:40,578; -144
18:41:40,582; -138
18:41:40,586; -136
18:41:40,590; -143
18:41:40,594; -127
18:41:40,598; -133
18:41:40,602; -104
18:41:40,605; -117
18:41:40,609; -113
18:41:40,613; -100
18:41:40,617; -100
18:41:40,621; -86
18:41:40,625; -78
18:41:40,629; -67
18:41:40,633; -66
18:41:40,637; -62
18:41:40,641; -53
18:41:40,645; -50
18:41:40,648; -34
18:41:40,652; -18
18:41:40,656; -5
18:41:40,660; 11
18:41:40,664; 35
18:41:40,668; 50
18:41:40,672; 66
18:41:40,676; 98
18:41:40,680; 118
18:41:40,684; 139
18:41:40,688; 175
18:41:40,691; 206
18:41:40,695; 233
18:41:40,699; 270
18:41:40,703; 299
18:41:40,707; 326
18:41:40,711; 359
18:41:40,715; 385
18:41:40,719; 421
18:41:40,723; 441
18:41:40,727; 460
18:41:40,730; 477
18:41:40,734; 480
18:41:40,738; 480
18:41:40,742; 470
18:41:40,746; 441
18:41:40,750; 397
18:41:40,754; 350
18:41:40,758; 315
18:41:40,762; 263
18:41:40,766; 222
18:41:40,770; 177
18:41:40,773; 130
18:41:40,777; 83
18:41:40,781; 44
18:41:40,785; 18
18:41:40,789; -1
18:41:40,793; -24
18:41:40,797; -46
18:41:40,801; -57
18:41:40,805; -73
18:41:40,809; -78
18:41:40,812; -91
18:41:40,816; -85
18:41:40,820; -96
18:41:40,824; -102
18:41:40,828; -100
18:41:40,832; -106
18:41:40,836; -104
18:41:40,840; -101
18:41:40,844; -106
18:41:40,848; -103
18:41:40,852; -104
18:41:40,855; -102
18:41:40,859; -95
18:41:40,863; -98
18:41:40,867; -95
18:41:40,871; -89
18:41:40,875; -84
18:41:40,879; -84
18:41:40,883; -82
18:41:40,887; -75
18:41:40,891; -79
18:41:40,895; -75
18:41:40,898; -77
18:41:40,902; -73
18:41:40,906; -75
18:41:40,910; -76
18:41:40,914; -65
18:41:40,918; -73
18:41:40,922; -68
18:41:40,926; -67
18:41:40,930; -64
18:41:40,934; -54
18:41:40,937; -47
18:41:40,941; -30
18:41:40,945; -14
18:41:40,949; -13
18:41:40,953; -3
18:41:40,957; 10
18:41:40,961; 14
18:41:40,965; 30
18:41:40,969; 34
18:41:40,973; 41
18:41:40,977; 26
18:41:40,980; 15
18:41:40,984; -6
18:41:40,988; -20
18:41:40,992; -35
18:41:40,996; -39
18:41:41,000; -52
18:41:41,004; -81
18:41:41,008; -104
18:41:41,012; -129
18:41:41,016; -156
18:41:41,020; -167
18:41:41,023; -166
18:41:41,027; -175
18:41:41,031; -170
18:41:41,035; -176
18:41:41,039; -183
18:41:41,043; -183
18:41:41,047; -186
18:41:41,051; -184
18:41:41,055; -184
18:41:41,059; -184
18:41:41,062; -185
18:41:41,066; -183
18:41:41,070; -179
18:41:41,074; -187
18:41:41,078; -216
18:41:41,082; -203
18:41:41,086; -164
18:41:41,090; -54
18:41:41,094; 200
18:41:41,098; 669
18:41:41,102; 1255
18:41:41,105; 1873
18:41:41,109; 2241
18:41:41,113; 2488
18:41:41,117; 2271
18:41:41,121; 1783
18:41:41,125; 1008
18:41:41,129; 265
18:41:41,133; -141
18:41:41,137; -275
18:41:41,141; -313
18:41:41,145; -158
18:41:41,148; -77
18:41:41,152; 17
18:41:41,156; -119
18:41:41,160; -215
18:41:41,164; -161
18:41:41,168; -170
18:41:41,172; -181
18:41:41,176; -165
18:41:41,180; -175
18:41:41,184; -202
18:41:41,187; -148
18:41:41,191; -158
18:41:41,195; -146
18:41:41,199; -181
18:41:41,203; -164
18:41:41,207; -146
18:41:41,211; -152
18:41:41,215; -136
18:41:41,219; -132
18:41:41,223; -145
18:41:41,227; -130
18:41:41,230; -136
18:41:41,234; -142
18:41:41,238; -126
18:41:41,242; -116
18:41:41,246; -118
18:41:41,250; -101
18:41:41,254; -103
18:41:41,258; -96
18:41:41,262; -85
18:41:41,266; -81
18:41:41,270; -73
18:41:41,273; -64
18:41:41,277; -52
18:41:41,281; -49
18:41:41,285; -32
18:41:41,289; -18
18:41:41,293; -3
18:41:41,297; 15
18:41:41,301; 34
18:41:41,305; 46
18:41:41,309; 77
18:41:41,312; 96
18:41:41,316; 114
18:41:41,320; 146
18:41:41,324; 179
18:41:41,328; 209
18:41:41,332; 233
18:41:41,336; 265
18:41:41,340; 304
18:41:41,344; 329
18:41:41,348; 356
18:41:41,352; 386
18:41:41,355; 404
18:41:41,359; 426
18:41:41,363; 432
18:41:41,367; 437
18:41:41,371; 440
18:41:41,375; 418
18:41:41,379; 395
18:41:41,383; 352
18:41:41,387; 319
18:41:41,391; 267
18:41:41,395; 216
18:41:41,398; 185
18:41:41,402; 138
18:41:41,406; 106
18:41:41,410; 67
18:41:41,414; 40
18:41:41,418; 12
18:41:41,422; -8
18:41:41,426; -35
18:41:41,430; -46
18:41:41,434; -53
18:41:41,438; -72
18:41:41,441; -73
18:41:41,445; -79
18:41:41,449; -78
18:41:41,453; -83
18:41:41,457; -87
18:41:41,461; -87
18:41:41,465; -91
18:41:41,469; -90
18:41:41,473; -86
18:41:41,477; -83
18:41:41,480; -82
18:41:41,484; -83
18:41:41,488; -78
18:41:41,492; -80
18:41:41,496; -76
18:41:41,500; -71
18:41:41,504; -64
18:41:41,508; -67
18:41:41,512; -66
18:41:41,516; -61
18:41:41,520; -61
18:41:41,523; -57
18:41:41,527; -53
18:41:41,531; -57
18:41:41,535; -56
18:41:41,539; -56
18:41:41,543; -54
18:41:41,547; -47
18:41:41,551; -43
18:41:41,555; -30
18:41:41,559; -20
18:41:41,562; -2
18:41:41,566; 4
18:41:41,570; 10
18:41:41,574; 34
18:41:41,578; 37
18:41:41,582; 41
18:41:41,586; 52
18:41:41,590; 62
18:41:41,594; 55
18:41:41,598; 37
18:41:41,602; 34
18:41:41,605; 14
18:41:41,609; -3
18:41:41,613; -11
18:41:41,617; -24
18:41:41,621; -38
18:41:41,625; -62
18:41:41,629; -90
18:41:41,633; -110
18:41:41,637; -133
18:41:41,641; -145
18:41:41,645; -154
18:41:41,648; -155
18:41:41,652; -150
18:41:41,656; -156
18:41:41,660; -157
18:41:41,664; -163
18:41:41,668; -163
18:41:41,672; -166
18:41:41,676; -172
18:41:41,680; -163
18:41:41,684; -168
18:41:41,688; -167
18:41:41,691; -174
18:41:41,695; -179
18:41:41,699; -219
18:41:41,703; -220
18:41:41,707; -169
18:41:41,711; -101
18:41:41,715; 62
18:41:41,719; 403
18:41:41,723; 1110
18:41:41,727; 1631
18:41:41,730; 2090
18:41:41,734; 2400
18:41:41,738; 2416
18:41:41,742; 1883
18:41:41,746; 1148
18:41:41,750; 440
18:41:41,754; -136
18:41:41,758; -276
18:41:41,762; -371
18:41:41,766; -244
18:41:41,770; -30
18:41:41,773; -20
18:41:41,777; -110
18:41:41,781; -143
18:41:41,785; -216
18:41:41,789; -202
18:41:41,793; -130
18:41:41,797; -184
18:41:41,801; -183
18:41:41,805; -171
18:41:41,809; -176
18:41:41,812; -168
18:41:41,816; -151
18:41:41,820; -162
18:41:41,824; -187
18:41:41,828; -154
18:41:41,832; -155
18:41:41,836; -145
18:41:41,840; -148
18:41:41,844; -143
18:41:41,848; -143
18:41:41,852; -139
18:41:41,855; -133
18:41:41,859; -139
18:41:41,863; -126
18:41:41,867; -125
18:41:41,871; -118
18:41:41,875; -112
18:41:41,879; -109
18:41:41,883; -112
18:41:41,887; -90
18:41:41,891; -92
18:41:41,895; -83
18:41:41,898; -71
18:41:41,902; -63
18:41:41,906; -51
18:41:41,910; -42
18:41:41,914; -23
18:41:41,918; -5
18:41:41,922; 4
18:41:41,926; 24
18:41:41,930; 37
18:41:41,934; 61
18:41:41,938; 85
18:41:41,941; 108
18:41:41,945; 132
18:41:41,949; 162
18:41:41,953; 189
18:41:41,957; 216
18:41:41,961; 241
18:41:41,965; 272
18:41:41,969; 293
18:41:41,973; 323
18:41:41,977; 345
18:41:41,980; 358
18:41:41,984; 373
18:41:41,988; 385
18:41:41,992; 372
18:41:41,996; 356
18:41:42,000; 336
18:41:42,004; 302
18:41:42,008; 266
18:41:42,012; 223
18:41:42,016; 177
18:41:42,020; 148
18:41:42,023; 101
18:41:42,027; 62
18:41:42,031; 28
18:41:42,035; -2
18:41:42,039; -30
18:41:42,043; -52
18:41:42,047; -68
18:41:42,051; -79
18:41:42,055; -95
18:41:42,059; -106
18:41:42,062; -112
18:41:42,066; -123
18:41:42,070; -125
18:41:42,074; -125
18:41:42,078; -131
18:41:42,082; -123
18:41:42,086; -125
18:41:42,090; -127
18:41:42,094; -126
18:41:42,098; -120
18:41:42,102; -122
18:41:42,105; -122
18:41:42,109; -123
18:41:42,113; -116
18:41:42,117; -117
18:41:42,121; -116
18:41:42,125; -110
18:41:42,129; -104
18:41:42,133; -100
18:41:42,137; -105
18:41:42,141; -98
18:41:42,145; -96
18:41:42,148; -101
18:41:42,152; -100
18:41:42,156; -98
18:41:42,160; -100
18:41:42,164; -102
18:41:42,168; -102
18:41:42,172; -103
18:41:42,176; -103
18:41:42,180; -103
18:41:42,184; -109
18:41:42,188; -110
18:41:42,191; -112
18:41:42,195; -122
18:41:42,199; -125
18:41:42,203; -127
18:41:42,207; -132
18:41:42,211; -135
18:41:42,215; -139
18:41:42,219; -137
18:41:42,223; -139
18:41:42,227; -146
18:41:42,230; -140
18:41:42,234; -143
18:41:42,238; -152
18:41:42,242; -146
18:41:42,246; -151
18:41:42,250; -153
18:41:42,254; -147
18:41:42,258; -153
18:41:42,262; -149
18:41:42,266; -156
18:41:42,270; -161
18:41:42,273; -158
18:41:42,277; -161
18:41:42,281; -171
18:41:42,285; -167
18:41:42,289; -167
18:41:42,293; -166
18:41:42,297; -169
18:41:42,301; -163
18:41:42,305; -160
18:41:42,309; -165
18:41:42,312; -158
18:41:42,316; -153
18:41:42,320; -141
18:41:42,324; -118
18:41:42,328; -94
18:41:42,332; -80
18:41:42,336; -77
18:41:42,340; -63
18:41:42,344; -60
18:41:42,348; -37
18:41:42,352; -27
18:41:42,355; -14
18:41:42,359; -5
18:41:42,363; -13
18:41:42,367; -40
18:41:42,371; -52
18:41:42,375; -58
18:41:42,379; -72
18:41:42,383; -74
18:41:42,387; -83
18:41:42,391; -104
18:41:42,395; -122
18:41:42,398; -144
18:41:42,402; -166
18:41:42,406; -182
18:41:42,410; -190
18:41:42,414; -182
18:41:42,418; -184
18:41:42,422; -189
18:41:42,426; -182
18:41:42,430; -185
18:41:42,434; -189
18:41:42,437; -188
18:41:42,441; -182
18:41:42,445; -177
18:41:42,449; -176
18:41:42,453; -176
18:41:42,457; -174
18:41:42,461; -181
18:41:42,465; -196
18:41:42,469; -218
18:41:42,473; -186
18:41:42,477; -145
18:41:42,480; -29
18:41:42,484; 249
18:41:42,488; 843
18:41:42,492; 1445
18:41:42,496; 1951
18:41:42,500; 2366
18:41:42,504; 2442
18:41:42,508; 2180
18:41:42,512; 1556
18:41:42,516; 661
18:41:42,520; 18
18:41:42,523; -111
18:41:42,527; -285
18:41:42,531; -342
18:41:42,535; -43
18:41:42,539; -38
18:41:42,543; -49
18:41:42,547; -222
18:41:42,551; -162
18:41:42,555; -152
18:41:42,559; -146
18:41:42,562; -129
18:41:42,566; -156
18:41:42,570; -199
18:41:42,574; -178
18:41:42,578; -125
18:41:42,582; -132
18:41:42,586; -181
18:41:42,590; -185
18:41:42,594; -147
18:41:42,598; -137
18:41:42,602; -165
18:41:42,605; -147
18:41:42,609; -155
18:41:42,613; -139
18:41:42,617; -154
18:41:42,621; -128
18:41:42,625; -141
18:41:42,629; -124
18:41:42,633; -127
18:41:42,637; -121
18:41:42,641; -110
18:41:42,645; -108
18:41:42,648; -96
18:41:42,652; -93
18:41:42,656; -80
18:41:42,660; -69
18:41:42,664; -69
18:41:42,668; -57
18:41:42,672; -42
18:41:42,676; -37
18:41:42,680; -25
18:41:42,684; -12
18:41:42,687; 2
18:41:42,691; 18
18:41:42,695; 36
18:41:42,699; 53
18:41:42,703; 83
18:41:42,707; 107
18:41:42,711; 128
18:41:42,715; 158
18:41:42,719; 182
18:41:42,723; 205
18:41:42,727; 240
18:41:42,730; 262
18:41:42,734; 289
18:41:42,738; 325
18:41:42,742; 344
18:41:42,746; 364
18:41:42,750; 388
18:41:42,754; 404
18:41:42,758; 417
18:41:42,762; 429
18:41:42,766; 424
18:41:42,770; 413
18:41:42,773; 379
18:41:42,777; 345
18:41:42,781; 315
18:41:42,785; 265
18:41:42,789; 223
18:41:42,793; 182
18:41:42,797; 141
18:41:42,801; 106
18:41:42,805; 81
18:41:42,809; 63
18:41:42,812; 19
18:41:42,816; -1
18:41:42,820; -14
18:41:42,824; -38
18:41:42,828; -59
18:41:42,832; -38
18:41:42,836; -72
18:41:42,840; -75
18:41:42,844; -63
18:41:42,848; -83
18:41:42,852; -92
18:41:42,855; -80
18:41:42,859; -79
18:41:42,863; -86
18:41:42,867; -82
18:41:42,871; -78
18:41:42,875; -74
18:41:42,879; -72
18:41:42,883; -79
18:41:42,887; -76
18:41:42,891; -68
18:41:42,895; -62
18:41:42,898; -57
18:41:42,902; -59
18:41:42,906; -60
18:41:42,910; -54
18:41:42,914; -59
18:41:42,918; -62
18:41:42,922; -64
18:41:42,926; -68
18:41:42,930; -72
18:41:42,934; -64
18:41:42,937; -73
18:41:42,941; -69
18:41:42,945; -64
18:41:42,949; -66
18:41:42,953; -71
18:41:42,957; -87
18:41:42,961; -82
18:41:42,965; -95
18:41:42,969; -101
18:41:42,973; -95
18:41:42,977; -93
18:41:42,980; -99
18:41:42,984; -107
18:41:42,988; -116
18:41:42,992; -119
18:41:42,996; -127
18:41:43,000; -128
18:41:43,004; -125
18:41:43,008; -130
18:41:43,012; -137
18:41:43,016; -136
18:41:43,020; -138
18:41:43,023; -139
18:41:43,027; -142
18:41:43,031; -141
18:41:43,035; -143
18:41:43,039; -144
18:41:43,043; -144
18:41:43,047; -150
18:41:43,051; -145
18:41:43,055; -148
18:41:43,059; -158
18:41:43,062; -159
18:41:43,066; -153
18:41:43,070; -145
18:41:43,074; -135
18:41:43,078; -121
18:41:43,082; -96
18:41:43,086; -83
18:41:43,090; -81
18:41:43,094; -64
18:41:43,098; -57
18:41:43,102; -49
18:41:43,105; -31
18:41:43,109; -30
18:41:43,113; -25
18:41:43,117; -40
18:41:43,121; -48
18:41:43,125; -67
18:41:43,129; -81
18:41:43,133; -88
18:41:43,137; -91
18:41:43,141; -103
18:41:43,145; -120
18:41:43,148; -128
18:41:43,152; -157
18:41:43,156; -175
18:41:43,160; -199
18:41:43,164; -209
18:41:43,168; -211
18:41:43,172; -216
18:41:43,176; -217
18:41:43,180; -214
18:41:43,184; -213
18:41:43,188; -213
18:41:43,191; -219
18:41:43,195; -211
18:41:43,199; -211
18:41:43,203; -212
18:41:43,207; -212
18:41:43,211; -208
18:41:43,215; -204
18:41:43,219; -223
18:41:43,223; -254
18:41:43,227; -240
18:41:43,230; -192
18:41:43,234; -78
18:41:43,238; 195
18:41:43,242; 788
18:41:43,246; 1392
18:41:43,250; 2048
18:41:43,254; 2445
18:41:43,258; 2562
18:41:43,262; 2335
18:41:43,266; 1602
18:41:43,270; 700
18:41:43,273; 18
18:41:43,277; -318
18:41:43,281; -449
18:41:43,285; -382
18:41:43,289; -151
18:41:43,293; -103
18:41:43,297; -44
18:41:43,301; -207
18:41:43,305; -288
18:41:43,309; -202
18:41:43,312; -226
18:41:43,316; -183
18:41:43,320; -245
18:41:43,324; -215
18:41:43,328; -242
18:41:43,332; -200
18:41:43,336; -229
18:41:43,340; -209
18:41:43,344; -198
18:41:43,348; -214
18:41:43,352; -183
18:41:43,355; -198
18:41:43,359; -188
18:41:43,363; -183
18:41:43,367; -193
18:41:43,371; -172
18:41:43,375; -181
18:41:43,379; -175
18:41:43,383; -173
18:41:43,387; -179
18:41:43,391; -166
18:41:43,395; -160
18:41:43,398; -157
18:41:43,402; -144
18:41:43,406; -139
18:41:43,410; -137
18:41:43,414; -115
18:41:43,418; -111
18:41:43,422; -91
18:41:43,426; -79
18:41:43,430; -78
18:41:43,434; -53
18:41:43,438; -47
18:41:43,441; -42
18:41:43,445; -11
18:41:43,449; 10
18:41:43,453; 17
18:41:43,457; 45
18:41:43,461; 71
18:41:43,465; 91
18:41:43,469; 125
18:41:43,473; 150
18:41:43,477; 187
18:41:43,480; 215
18:41:43,484; 230
18:41:43,488; 260
18:41:43,492; 281
18:41:43,496; 313
18:41:43,500; 357
18:41:43,504; 368
18:41:43,508; 382
18:41:43,512; 388
18:41:43,516; 384
18:41:43,520; 350
18:41:43,523; 340
18:41:43,527; 298
18:41:43,531; 257
18:41:43,535; 206
18:41:43,539; 162
18:41:43,543; 125
18:41:43,547; 85
18:41:43,551; 33
18:41:43,555; 7
18:41:43,559; -21
18:41:43,562; -57
18:41:43,566; -80
18:41:43,570; -106
18:41:43,574; -113
18:41:43,578; -138
18:41:43,582; -152
18:41:43,586; -149
18:41:43,590; -168
18:41:43,594; -176
18:41:43,598; -172
18:41:43,602; -184
18:41:43,605; -182
18:41:43,609; -196
18:41:43,613; -185
18:41:43,617; -184
18:41:43,621; -195
18:41:43,625; -189
18:41:43,629; -182
18:41:43,633; -172
18:41:43,637; -177
18:41:43,641; -178
18:41:43,645; -174
18:41:43,648; -160
18:41:43,652; -155
18:41:43,656; -161
18:41:43,660; -159
18:41:43,664; -156
18:41:43,668; -168
18:41:43,672; -168
18:41:43,676; -163
18:41:43,680; -158
18:41:43,684; -151
18:41:43,688; -152
18:41:43,691; -155
18:41:43,695; -158
18:41:43,699; -156
18:41:43,703; -165
18:41:43,707; -169
18:41:43,711; -163
18:41:43,715; -171
18:41:43,719; -187
18:41:43,723; -176
18:41:43,727; -186
18:41:43,730; -195
18:41:43,734; -188
18:41:43,738; -185
18:41:43,742; -196
18:41:43,746; -201
18:41:43,750; -195
18:41:43,754; -199
18:41:43,758; -204
18:41:43,762; -228
18:41:43,766; -215
18:41:43,770; -225
18:41:43,773; -233
18:41:43,777; -235
18:41:43,781; -224
18:41:43,785; -212
18:41:43,789; -217
18:41:43,793; -233
18:41:43,797; -230
18:41:43,801; -239
18:41:43,805; -238
18:41:43,809; -244
18:41:43,812; -232
18:41:43,816; -228
18:41:43,820; -234
18:41:43,824; -231
18:41:43,828; -231
18:41:43,832; -232
18:41:43,836; -235
18:41:43,840; -240
18:41:43,844; -237
18:41:43,848; -246
18:41:43,852; -248
18:41:43,855; -230
18:41:43,859; -241
18:41:43,863; -243
18:41:43,867; -220
18:41:43,871; -246
18:41:43,875; -237
18:41:43,879; -234
18:41:43,883; -232
18:41:43,887; -227
18:41:43,891; -250
18:41:43,895; -246
18:41:43,898; -231
18:41:43,902; -244
18:41:43,906; -246
18:41:43,910; -226
18:41:43,914; -227
18:41:43,918; -239
18:41:43,922; -256
18:41:43,926; -248
18:41:43,930; -244
18:41:43,934; -232
18:41:43,938; -220
18:41:43,941; -193
18:41:43,945; -163
18:41:43,949; -166
18:41:43,953; -131
18:41:43,957; -127
18:41:43,961; -112
18:41:43,965; -108
18:41:43,969; -88
18:41:43,973; -83
18:41:43,977; -106
18:41:43,980; -102
18:41:43,984; -130
18:41:43,988; -139
18:41:43,992; -139
18:41:43,996; -161
18:41:44,000; -161
18:41:44,004; -181
18:41:44,008; -211
18:41:44,012; -232
18:41:44,016; -257
18:41:44,020; -280
18:41:44,023; -281
18:41:44,027; -287
18:41:44,031; -287
18:41:44,035; -295
18:41:44,039; -265
18:41:44,043; -261
18:41:44,047; -284
18:41:44,051; -293
18:41:44,055; -284
18:41:44,059; -290
18:41:44,062; -297
18:41:44,066; -291
18:41:44,070; -274
18:41:44,074; -307
18:41:44,078; -309
18:41:44,082; -272
18:41:44,086; -177
18:41:44,090; 23
18:41:44,094; 436
18:41:44,098; 965
18:41:44,102; 1783
18:41:44,105; 2193
18:41:44,109; 2522
18:41:44,113; 2594
18:41:44,117; 2194
18:41:44,121; 1219
18:41:44,125; 559
18:41:44,129; -192
18:41:44,133; -315
18:41:44,137; -416
18:41:44,141; -273
18:41:44,145; -168
18:41:44,148; -138
18:41:44,152; -157
18:41:44,156; -351
18:41:44,160; -297
18:41:44,164; -278
18:41:44,168; -262
18:41:44,172; -245
18:41:44,176; -349
18:41:44,180; -324
18:41:44,184; -270
18:41:44,187; -270
18:41:44,191; -283
18:41:44,195; -278
18:41:44,199; -286
18:41:44,203; -268
18:41:44,207; -261
18:41:44,211; -255
18:41:44,215; -223
18:41:44,219; -262
18:41:44,223; -267
18:41:44,227; -240
18:41:44,230; -230
18:41:44,234; -246
18:41:44,238; -225
18:41:44,242; -232
18:41:44,246; -217
18:41:44,250; -209
18:41:44,254; -197
18:41:44,258; -223
18:41:44,262; -194
18:41:44,266; -186
18:41:44,270; -178
18:41:44,273; -164
18:41:44,277; -155
18:41:44,281; -159
18:41:44,285; -138
18:41:44,289; -125
18:41:44,293; -111
18:41:44,297; -93
18:41:44,301; -60
18:41:44,305; -41
18:41:44,309; -28
18:41:44,312; -13
18:41:44,316; 32
18:41:44,320; 77
18:41:44,324; 84
18:41:44,328; 106
18:41:44,332; 131
18:41:44,336; 168
18:41:44,340; 210
18:41:44,344; 237
18:41:44,348; 281
18:41:44,352; 301
18:41:44,355; 334
18:41:44,359; 344
18:41:44,363; 361
18:41:44,367; 375
18:41:44,371; 376
18:41:44,375; 362
18:41:44,379; 352
18:41:44,383; 305
18:41:44,387; 253
18:41:44,391; 232
18:41:44,395; 141
18:41:44,398; 98
18:41:44,402; 59
18:41:44,406; 17
18:41:44,410; -28
18:41:44,414; -50
18:41:44,418; -85
18:41:44,422; -123
18:41:44,426; -135
18:41:44,430; -162
18:41:44,434; -175
18:41:44,437; -176
18:41:44,441; -196
18:41:44,445; -227
18:41:44,449; -231
18:41:44,453; -236
18:41:44,457; -233
18:41:44,461; -249
18:41:44,465; -235
18:41:44,469; -229
18:41:44,473; -233
18:41:44,477; -226
18:41:44,480; -246
18:41:44,484; -234
18:41:44,488; -220
18:41:44,492; -216
18:41:44,496; -243
18:41:44,500; -213
18:41:44,504; -207
18:41:44,508; -234
18:41:44,512; -224
18:41:44,516; -246
18:41:44,520; -224
18:41:44,523; -214
18:41:44,527; -211
18:41:44,531; -194
18:41:44,535; -204
18:41:44,539; -197
18:41:44,543; -184
18:41:44,547; -201
18:41:44,551; -205
18:41:44,555; -201
18:41:44,559; -212
18:41:44,562; -231
18:41:44,566; -218
18:41:44,570; -217
18:41:44,574; -222
18:41:44,578; -208
18:41:44,582; -229
18:41:44,586; -245
18:41:44,590; -226
18:41:44,594; -212
18:41:44,598; -252
18:41:44,602; -245
18:41:44,605; -234
18:41:44,609; -257
18:41:44,613; -260
18:41:44,617; -253
18:41:44,621; -250
18:41:44,625; -269
18:41:44,629; -274
18:41:44,633; -258
18:41:44,637; -264
18:41:44,641; -262
18:41:44,645; -273
18:41:44,648; -277
18:41:44,652; -270
18:41:44,656; -297
18:41:44,660; -288
18:41:44,664; -287
18:41:44,668; -279
18:41:44,672; -299
18:41:44,676; -282
18:41:44,680; -273
18:41:44,684; -272
18:41:44,688; -292
18:41:44,691; -291
18:41:44,695; -292
18:41:44,699; -288
18:41:44,703; -288
18:41:44,707; -286
18:41:44,711; -296
18:41:44,715; -289
18:41:44,719; -300
18:41:44,723; -305
18:41:44,727; -296
18:41:44,730; -288
18:41:44,734; -305
18:41:44,738; -293
18:41:44,742; -290
18:41:44,746; -318
18:41:44,750; -289
18:41:44,754; -306
18:41:44,758; -311
18:41:44,762; -299
18:41:44,766; -275
18:41:44,770; -261
18:41:44,773; -231
18:41:44,777; -208
18:41:44,781; -220
18:41:44,785; -187
18:41:44,789; -183
18:41:44,793; -170
18:41:44,797; -154
18:41:44,801; -149
18:41:44,805; -128
18:41:44,809; -138
18:41:44,812; -161
18:41:44,816; -209
18:41:44,820; -203
18:41:44,824; -228
18:41:44,828; -239
18:41:44,832; -248
18:41:44,836; -245
18:41:44,840; -288
18:41:44,844; -308
18:41:44,848; -333
18:41:44,852; -343
18:41:44,855; -333
18:41:44,859; -349
18:41:44,863; -326
18:41:44,867; -351
18:41:44,871; -368
18:41:44,875; -372
18:41:44,879; -369
18:41:44,883; -360
18:41:44,887; -362
18:41:44,891; -355
18:41:44,895; -367
18:41:44,898; -357
18:41:44,902; -379
18:41:44,906; -368
18:41:44,910; -375
18:41:44,914; -348
18:41:44,918; -304
18:41:44,922; -196
18:41:44,926; 54
18:41:44,930; 591
18:41:44,934; 1731
18:41:44,938; 1944
18:41:44,941; 2474
18:41:44,945; 2560
18:41:44,949; 1901
18:41:44,953; 1209
18:41:44,957; 329
18:41:44,961; -236
18:41:44,965; -288
18:41:44,969; -380
18:41:44,973; -433
18:41:44,977; -223
18:41:44,980; -235
18:41:44,984; -230
18:41:44,988; -354
18:41:44,992; -387
18:41:44,996; -304
18:41:45,000; -339
18:41:45,004; -319
18:41:45,008; -370
18:41:45,012; -334
18:41:45,016; -352
18:41:45,020; -321
18:41:45,023; -311
18:41:45,027; -335
18:41:45,031; -372
18:41:45,035; -318
18:41:45,039; -329
18:41:45,043; -323
18:41:45,047; -318
18:41:45,051; -290
18:41:45,055; -304
18:41:45,059; -289
18:41:45,062; -305
18:41:45,066; -314
18:41:45,070; -284
18:41:45,074; -289
18:41:45,078; -270
18:41:45,082; -283
18:41:45,086; -279
18:41:45,090; -270
18:41:45,094; -273
18:41:45,098; -255
18:41:45,102; -240
18:41:45,105; -220
18:41:45,109; -193
18:41:45,113; -196
18:41:45,117; -208
18:41:45,121; -170
18:41:45,125; -146
18:41:45,129; -172
18:41:45,133; -117
18:41:45,137; -91
18:41:45,141; -76
18:41:45,145; -17
18:41:45,148; -9
18:41:45,152; 2
18:41:45,156; 37
18:41:45,160; 51
18:41:45,164; 97
18:41:45,168; 170
18:41:45,172; 183
18:41:45,176; 237
18:41:45,180; 259
18:41:45,184; 267
18:41:45,188; 291
18:41:45,191; 339
18:41:45,195; 339
18:41:45,199; 347
18:41:45,203; 335
18:41:45,207; 311
18:41:45,211; 267
18:41:45,215; 172
18:41:45,219; 154
18:41:45,223; 109
18:41:45,227; 58
18:41:45,230; -1
18:41:45,234; -50
18:41:45,238; -74
18:41:45,242; -107
18:41:45,246; -142
18:41:45,250; -201
18:41:45,254; -209
18:41:45,258; -224
18:41:45,262; -240
18:41:45,266; -255
18:41:45,270; -258
18:41:45,273; -253
18:41:45,277; -279
18:41:45,281; -318
18:41:45,285; -320
18:41:45,289; -301
18:41:45,293; -291
18:41:45,297; -294
18:41:45,301; -307
18:41:45,305; -324
18:41:45,309; -313
18:41:45,312; -303
18:41:45,316; -300
18:41:45,320; -308
18:41:45,324; -312
18:41:45,328; -302
18:41:45,332; -311
18:41:45,336; -301
18:41:45,340; -287
18:41:45,344; -286
18:41:45,348; -301
18:41:45,352; -302
18:41:45,355; -275
18:41:45,359; -280
18:41:45,363; -266
18:41:45,367; -280
18:41:45,371; -299
18:41:45,375; -289
18:41:45,379; -278
18:41:45,383; -299
18:41:45,387; -276
18:41:45,391; -258
18:41:45,395; -264
18:41:45,398; -284
18:41:45,402; -273
18:41:45,406; -286
18:41:45,410; -286
18:41:45,414; -289
18:41:45,418; -292
18:41:45,422; -291
18:41:45,426; -282
18:41:45,430; -298
18:41:45,434; -304
18:41:45,438; -313
18:41:45,441; -307
18:41:45,445; -301
18:41:45,449; -315
18:41:45,453; -325
18:41:45,457; -314
18:41:45,461; -323
18:41:45,465; -332
18:41:45,469; -348
18:41:45,473; -318
18:41:45,477; -343
18:41:45,480; -362
18:41:45,484; -349
18:41:45,488; -341
18:41:45,492; -334
18:41:45,496; -321
18:41:45,500; -343
18:41:45,504; -334
18:41:45,508; -368
18:41:45,512; -368
18:41:45,516; -387
18:41:45,520; -371
18:41:45,523; -336
18:41:45,527; -333
18:41:45,531; -346
18:41:45,535; -325
18:41:45,539; -358
18:41:45,543; -365
18:41:45,547; -359
18:41:45,551; -353
18:41:45,555; -364
18:41:45,559; -350
18:41:45,562; -340
18:41:45,566; -372
18:41:45,570; -364
18:41:45,574; -363
18:41:45,578; -372
18:41:45,582; -358
18:41:45,586; -362
18:41:45,590; -358
18:41:45,594; -339
18:41:45,598; -354
18:41:45,602; -357
18:41:45,605; -376
18:41:45,609; -365
18:41:45,613; -353
18:41:45,617; -373
18:41:45,621; -341
18:41:45,625; -344
18:41:45,629; -351
18:41:45,633; -360
18:41:45,637; -344
18:41:45,641; -372
18:41:45,645; -362
18:41:45,648; -346
18:41:45,652; -355
18:41:45,656; -348
18:41:45,660; -377
18:41:45,664; -348
18:41:45,668; -322
18:41:45,672; -358
18:41:45,676; -348
18:41:45,680; -293
18:41:45,684; -271
18:41:45,687; -274
18:41:45,691; -242
18:41:45,695; -238
18:41:45,699; -212
18:41:45,703; -206
18:41:45,707; -203
18:41:45,711; -184
18:41:45,715; -201
18:41:45,719; -194
18:41:45,723; -217
18:41:45,727; -225
18:41:45,730; -247
18:41:45,734; -253
18:41:45,738; -282
18:41:45,742; -295
18:41:45,746; -328
18:41:45,750; -346
18:41:45,754; -345
18:41:45,758; -373
18:41:45,762; -382
18:41:45,766; -386
18:41:45,770; -374
18:41:45,773; -372
18:41:45,777; -382
18:41:45,781; -375
18:41:45,785; -381
18:41:45,789; -379
18:41:45,793; -376
18:41:45,797; -357
18:41:45,801; -366
18:41:45,805; -369
18:41:45,809; -391
18:41:45,812; -439
18:41:45,816; -412
18:41:45,820; -370
18:41:45,824; -241
18:41:45,828; 34
18:41:45,832; 448
18:41:45,836; 1054
18:41:45,840; 1646
18:41:45,844; 2127
18:41:45,848; 2363
18:41:45,852; 2312
18:41:45,855; 1951
18:41:45,859; 1257
18:41:45,863; 584
18:41:45,867; -221
18:41:45,871; -264
18:41:45,875; -413
18:41:45,879; -359
18:41:45,883; -269
18:41:45,887; -195
18:41:45,891; -183
18:41:45,895; -373
18:41:45,898; -443
18:41:45,902; -336
18:41:45,906; -344
18:41:45,910; -315
18:41:45,914; -387
18:41:45,918; -361
18:41:45,922; -377
18:41:45,926; -333
18:41:45,930; -361
18:41:45,934; -348
18:41:45,937; -375
18:41:45,941; -318
18:41:45,945; -335
18:41:45,949; -335
18:41:45,953; -343
18:41:45,957; -319
18:41:45,961; -325
18:41:45,965; -345
18:41:45,969; -315
18:41:45,973; -326
18:41:45,977; -304
18:41:45,980; -297
18:41:45,984; -291
18:41:45,988; -275
18:41:45,992; -277
18:41:45,996; -269
18:41:46,000; -271
18:41:46,004; -267
18:41:46,008; -253
18:41:46,012; -223
18:41:46,016; -226
18:41:46,020; -237
18:41:46,023; -199
18:41:46,027; -180
18:41:46,031; -183
18:41:46,035; -157
18:41:46,039; -134
18:41:46,043; -112
18:41:46,047; -103
18:41:46,051; -79
18:41:46,055; -52
18:41:46,059; -18
18:41:46,062; 19
18:41:46,066; 55
18:41:46,070; 92
18:41:46,074; 133
18:41:46,078; 162
18:41:46,082; 210
18:41:46,086; 214
18:41:46,090; 252
18:41:46,094; 268
18:41:46,098; 301
18:41:46,102; 324
18:41:46,105; 313
18:41:46,109; 323
18:41:46,113; 316
18:41:46,117; 282
18:41:46,121; 248
18:41:46,125; 208
18:41:46,129; 154
18:41:46,133; 103
18:41:46,137; 53
18:41:46,141; -2
18:41:46,145; -18
18:41:46,148; -75
18:41:46,152; -114
18:41:46,156; -141
18:41:46,160; -186
18:41:46,164; -195
18:41:46,168; -203
18:41:46,172; -222
18:41:46,176; -223
18:41:46,180; -235
18:41:46,184; -251
18:41:46,188; -244
18:41:46,191; -248
18:41:46,195; -249
18:41:46,199; -240
18:41:46,203; -280
18:41:46,207; -291
18:41:46,211; -276
18:41:46,215; -283
18:41:46,219; -279
18:41:46,223; -265
18:41:46,227; -259
18:41:46,230; -259
18:41:46,234; -256
18:41:46,238; -265
18:41:46,242; -249
18:41:46,246; -249
18:41:46,250; -233
18:41:46,254; -235
18:41:46,258; -240
18:41:46,262; -219
18:41:46,266; -218
18:41:46,270; -222
18:41:46,273; -226
18:41:46,277; -216
18:41:46,281; -215
18:41:46,285; -213
18:41:46,289; -210
18:41:46,293; -217
18:41:46,297; -216
18:41:46,301; -213
18:41:46,305; -216
18:41:46,309; -220
18:41:46,312; -217
18:41:46,316; -216
18:41:46,320; -224
18:41:46,324; -218
18:41:46,328; -221
18:41:46,332; -215
18:41:46,336; -226
18:41:46,340; -245
18:41:46,344; -240
18:41:46,348; -241
18:41:46,352; -240
18:41:46,355; -245
18:41:46,359; -239
18:41:46,363; -243
18:41:46,367; -257
18:41:46,371; -266
18:41:46,375; -257
18:41:46,379; -248
18:41:46,383; -255
18:41:46,387; -265
18:41:46,391; -257
18:41:46,395; -263
18:41:46,398; -264
18:41:46,402; -269
18:41:46,406; -262
18:41:46,410; -260
18:41:46,414; -259
18:41:46,418; -265
18:41:46,422; -265
18:41:46,426; -264
18:41:46,430; -275
18:41:46,434; -269
18:41:46,438; -265
18:41:46,441; -264
18:41:46,445; -271
18:41:46,449; -270
18:41:46,453; -271
18:41:46,457; -266
18:41:46,461; -270
18:41:46,465; -265
18:41:46,469; -264
18:41:46,473; -267
18:41:46,477; -278
18:41:46,480; -277
18:41:46,484; -274
18:41:46,488; -271
18:41:46,492; -265
18:41:46,496; -258
18:41:46,500; -278
18:41:46,504; -268
18:41:46,508; -269
18:41:46,512; -270
18:41:46,516; -263
18:41:46,520; -261
18:41:46,523; -257
18:41:46,527; -265
18:41:46,531; -269
18:41:46,535; -268
18:41:46,539; -256
18:41:46,543; -269
18:41:46,547; -261
18:41:46,551; -260
18:41:46,555; -272
18:41:46,559; -271
18:41:46,562; -270
18:41:46,566; -266
18:41:46,570; -261
18:41:46,574; -266
18:41:46,578; -271
18:41:46,582; -270
18:41:46,586; -271
18:41:46,590; -271
18:41:46,594; -267
18:41:46,598; -265
18:41:46,602; -259
18:41:46,605; -260
18:41:46,609; -262
18:41:46,613; -268
18:41:46,617; -267
18:41:46,621; -261
18:41:46,625; -265
18:41:46,629; -259
18:41:46,633; -265
18:41:46,637; -256
18:41:46,641; -265
18:41:46,645; -261
18:41:46,648; -270
18:41:46,652; -271
18:41:46,656; -259
18:41:46,660; -265
18:41:46,664; -263
18:41:46,668; -256
18:41:46,672; -261
18:41:46,676; -259
18:41:46,680; -256
18:41:46,684; -251
18:41:46,688; -255
18:41:46,691; -259
18:41:46,695; -259
18:41:46,699; -263
18:41:46,703; -266
18:41:46,707; -255
18:41:46,711; -233
18:41:46,715; -219
18:41:46,719; -199
18:41:46,723; -194
18:41:46,727; -171
18:41:46,730; -144
18:41:46,734; -146
18:41:46,738; -120
18:41:46,742; -95
18:41:46,746; -104
18:41:46,750; -116
18:41:46,754; -112
18:41:46,758; -139
18:41:46,762; -150
18:41:46,766; -159
18:41:46,770; -167
18:41:46,773; -179
18:41:46,777; -179
18:41:46,781; -206
18:41:46,785; -232
18:41:46,789; -247
18:41:46,793; -259
18:41:46,797; -265
18:41:46,801; -269
18:41:46,805; -267
18:41:46,809; -263
18:41:46,812; -262
18:41:46,816; -264
18:41:46,820; -268
18:41:46,824; -265
18:41:46,828; -259
18:41:46,832; -262
18:41:46,836; -264
18:41:46,840; -274
18:41:46,844; -286
18:41:46,848; -318
18:41:46,852; -291
18:41:46,855; -247
18:41:46,859; -121
18:41:46,863; 149
18:41:46,867; 632
18:41:46,871; 1227
18:41:46,875; 1842
18:41:46,879; 2336
18:41:46,883; 2444
18:41:46,887; 2394
18:41:46,891; 1894
18:41:46,895; 1114
18:41:46,898; 197
18:41:46,902; -46
18:41:46,906; -419
18:41:46,910; -422
18:41:46,914; -260
18:41:46,918; -59
18:41:46,922; -88
18:41:46,926; -176
18:41:46,930; -288
18:41:46,934; -266
18:41:46,938; -225
18:41:46,941; -239
18:41:46,945; -237
18:41:46,949; -209
18:41:46,953; -287
18:41:46,957; -264
18:41:46,961; -226
18:41:46,965; -232
18:41:46,969; -239
18:41:46,973; -230
