Signal Type: ECG_Type
Start Time: 26/04/2023 19:35:20
Sample Rate: 256
Length: 79998
Unit: µV

Data:
19:35:20,000; -1325
19:35:20,004; -1173
19:35:20,008; -1551
19:35:20,012; -1841
19:35:20,016; -1776
19:35:20,020; -1529
19:35:20,023; -1426
19:35:20,027; -1510
19:35:20,031; -1637
19:35:20,035; -1633
19:35:20,039; -1554
19:35:20,043; -1497
19:35:20,047; -1542
19:35:20,051; -1575
19:35:20,055; -1569
19:35:20,059; -1549
19:35:20,062; -1538
19:35:20,066; -1537
19:35:20,070; -1568
19:35:20,074; -1563
19:35:20,078; -1562
19:35:20,082; -1546
19:35:20,086; -1548
19:35:20,090; -1558
19:35:20,094; -1567
19:35:20,098; -1578
19:35:20,102; -1587
19:35:20,105; -1570
19:35:20,109; -1562
19:35:20,113; -1584
19:35:20,117; -1583
19:35:20,121; -1588
19:35:20,125; -1614
19:35:20,129; -1617
19:35:20,133; -1603
19:35:20,137; -1592
19:35:20,141; -1597
19:35:20,145; -1586
19:35:20,148; -1609
19:35:20,152; -1612
19:35:20,156; -1614
19:35:20,160; -1617
19:35:20,164; -1618
19:35:20,168; -1614
19:35:20,172; -1627
19:35:20,176; -1633
19:35:20,180; -1624
19:35:20,184; -1622
19:35:20,187; -1621
19:35:20,191; -1612
19:35:20,195; -1607
19:35:20,199; -1587
19:35:20,203; -1576
19:35:20,207; -1560
19:35:20,211; -1538
19:35:20,215; -1531
19:35:20,219; -1518
19:35:20,223; -1516
19:35:20,227; -1501
19:35:20,230; -1465
19:35:20,234; -1469
19:35:20,238; -1462
19:35:20,242; -1451
19:35:20,246; -1465
19:35:20,250; -1481
19:35:20,254; -1485
19:35:20,258; -1511
19:35:20,262; -1500
19:35:20,266; -1508
19:35:20,270; -1518
19:35:20,273; -1534
19:35:20,277; -1558
19:35:20,281; -1591
19:35:20,285; -1629
19:35:20,289; -1641
19:35:20,293; -1635
19:35:20,297; -1648
19:35:20,301; -1635
19:35:20,305; -1632
19:35:20,309; -1643
19:35:20,312; -1645
19:35:20,316; -1638
19:35:20,320; -1638
19:35:20,324; -1635
19:35:20,328; -1645
19:35:20,332; -1644
19:35:20,336; -1642
19:35:20,340; -1647
19:35:20,344; -1642
19:35:20,348; -1648
19:35:20,352; -1666
19:35:20,355; -1658
19:35:20,359; -1620
19:35:20,363; -1542
19:35:20,367; -1344
19:35:20,371; -955
19:35:20,375; -462
19:35:20,379; 53
19:35:20,383; 687
19:35:20,387; 864
19:35:20,391; 947
19:35:20,395; 708
19:35:20,398; 92
19:35:20,402; -665
19:35:20,406; -1422
19:35:20,410; -1677
19:35:20,414; -1828
19:35:20,418; -1810
19:35:20,422; -1613
19:35:20,426; -1545
19:35:20,430; -1485
19:35:20,434; -1632
19:35:20,437; -1712
19:35:20,441; -1642
19:35:20,445; -1653
19:35:20,449; -1612
19:35:20,453; -1666
19:35:20,457; -1646
19:35:20,461; -1670
19:35:20,465; -1632
19:35:20,469; -1615
19:35:20,473; -1639
19:35:20,477; -1648
19:35:20,480; -1630
19:35:20,484; -1627
19:35:20,488; -1619
19:35:20,492; -1600
19:35:20,496; -1621
19:35:20,500; -1604
19:35:20,504; -1609
19:35:20,508; -1597
19:35:20,512; -1587
19:35:20,516; -1590
19:35:20,520; -1573
19:35:20,523; -1579
19:35:20,527; -1568
19:35:20,531; -1565
19:35:20,535; -1553
19:35:20,539; -1546
19:35:20,543; -1535
19:35:20,547; -1533
19:35:20,551; -1526
19:35:20,555; -1516
19:35:20,559; -1504
19:35:20,562; -1486
19:35:20,566; -1476
19:35:20,570; -1451
19:35:20,574; -1442
19:35:20,578; -1431
19:35:20,582; -1418
19:35:20,586; -1394
19:35:20,590; -1375
19:35:20,594; -1347
19:35:20,598; -1324
19:35:20,602; -1299
19:35:20,605; -1270
19:35:20,609; -1273
19:35:20,613; -1252
19:35:20,617; -1234
19:35:20,621; -1216
19:35:20,625; -1202
19:35:20,629; -1181
19:35:20,633; -1155
19:35:20,637; -1134
19:35:20,641; -1123
19:35:20,645; -1108
19:35:20,648; -1095
19:35:20,652; -1097
19:35:20,656; -1112
19:35:20,660; -1118
19:35:20,664; -1143
19:35:20,668; -1154
19:35:20,672; -1194
19:35:20,676; -1206
19:35:20,680; -1240
19:35:20,684; -1258
19:35:20,687; -1288
19:35:20,691; -1299
19:35:20,695; -1319
19:35:20,699; -1341
19:35:20,703; -1361
19:35:20,707; -1368
19:35:20,711; -1379
19:35:20,715; -1382
19:35:20,719; -1387
19:35:20,723; -1384
19:35:20,727; -1394
19:35:20,730; -1383
19:35:20,734; -1386
19:35:20,738; -1377
19:35:20,742; -1365
19:35:20,746; -1370
19:35:20,750; -1369
19:35:20,754; -1372
19:35:20,758; -1361
19:35:20,762; -1355
19:35:20,766; -1355
19:35:20,770; -1349
19:35:20,773; -1344
19:35:20,777; -1349
19:35:20,781; -1345
19:35:20,785; -1341
19:35:20,789; -1348
19:35:20,793; -1333
19:35:20,797; -1350
19:35:20,801; -1351
19:35:20,805; -1347
19:35:20,809; -1355
19:35:20,812; -1362
19:35:20,816; -1365
19:35:20,820; -1366
19:35:20,824; -1374
19:35:20,828; -1379
19:35:20,832; -1385
19:35:20,836; -1383
19:35:20,840; -1394
19:35:20,844; -1389
19:35:20,848; -1392
19:35:20,852; -1393
19:35:20,855; -1404
19:35:20,859; -1422
19:35:20,863; -1417
19:35:20,867; -1424
19:35:20,871; -1426
19:35:20,875; -1420
19:35:20,879; -1415
19:35:20,883; -1419
19:35:20,887; -1414
19:35:20,891; -1425
19:35:20,895; -1421
19:35:20,898; -1418
19:35:20,902; -1420
19:35:20,906; -1418
19:35:20,910; -1418
19:35:20,914; -1430
19:35:20,918; -1421
19:35:20,922; -1428
19:35:20,926; -1424
19:35:20,930; -1424
19:35:20,934; -1421
19:35:20,938; -1420
19:35:20,941; -1423
19:35:20,945; -1426
19:35:20,949; -1420
19:35:20,953; -1427
19:35:20,957; -1414
19:35:20,961; -1415
19:35:20,965; -1423
19:35:20,969; -1423
19:35:20,973; -1423
19:35:20,977; -1434
19:35:20,980; -1419
19:35:20,984; -1426
19:35:20,988; -1423
19:35:20,992; -1416
19:35:20,996; -1423
19:35:21,000; -1415
19:35:21,004; -1430
19:35:21,008; -1418
19:35:21,012; -1413
19:35:21,016; -1421
19:35:21,020; -1411
19:35:21,023; -1409
19:35:21,027; -1422
19:35:21,031; -1416
19:35:21,035; -1416
19:35:21,039; -1417
19:35:21,043; -1407
19:35:21,047; -1410
19:35:21,051; -1401
19:35:21,055; -1407
19:35:21,059; -1406
19:35:21,062; -1412
19:35:21,066; -1407
19:35:21,070; -1407
19:35:21,074; -1402
19:35:21,078; -1401
19:35:21,082; -1403
19:35:21,086; -1404
19:35:21,090; -1399
19:35:21,094; -1396
19:35:21,098; -1397
19:35:21,102; -1391
19:35:21,105; -1379
19:35:21,109; -1384
19:35:21,113; -1389
19:35:21,117; -1388
19:35:21,121; -1388
19:35:21,125; -1384
19:35:21,129; -1389
19:35:21,133; -1375
19:35:21,137; -1378
19:35:21,141; -1386
19:35:21,145; -1381
19:35:21,148; -1383
19:35:21,152; -1376
19:35:21,156; -1371
19:35:21,160; -1369
19:35:21,164; -1361
19:35:21,168; -1349
19:35:21,172; -1345
19:35:21,176; -1309
19:35:21,180; -1283
19:35:21,184; -1264
19:35:21,188; -1245
19:35:21,191; -1242
19:35:21,195; -1229
19:35:21,199; -1225
19:35:21,203; -1213
19:35:21,207; -1207
19:35:21,211; -1221
19:35:21,215; -1221
19:35:21,219; -1239
19:35:21,223; -1261
19:35:21,227; -1250
19:35:21,230; -1257
19:35:21,234; -1269
19:35:21,238; -1254
19:35:21,242; -1284
19:35:21,246; -1297
19:35:21,250; -1324
19:35:21,254; -1339
19:35:21,258; -1351
19:35:21,262; -1356
19:35:21,266; -1360
19:35:21,270; -1351
19:35:21,273; -1359
19:35:21,277; -1348
19:35:21,281; -1351
19:35:21,285; -1351
19:35:21,289; -1348
19:35:21,293; -1333
19:35:21,297; -1342
19:35:21,301; -1341
19:35:21,305; -1350
19:35:21,309; -1381
19:35:21,312; -1367
19:35:21,316; -1336
19:35:21,320; -1271
19:35:21,324; -1117
19:35:21,328; -783
19:35:21,332; -74
19:35:21,336; 453
19:35:21,340; 913
19:35:21,344; 1221
19:35:21,348; 1234
19:35:21,352; 836
19:35:21,355; 87
19:35:21,359; -582
19:35:21,363; -1126
19:35:21,367; -1423
19:35:21,371; -1525
19:35:21,375; -1449
19:35:21,379; -1258
19:35:21,383; -1229
19:35:21,387; -1200
19:35:21,391; -1327
19:35:21,395; -1379
19:35:21,398; -1308
19:35:21,402; -1328
19:35:21,406; -1300
19:35:21,410; -1297
19:35:21,414; -1325
19:35:21,418; -1323
19:35:21,422; -1293
19:35:21,426; -1294
19:35:21,430; -1323
19:35:21,434; -1324
19:35:21,437; -1299
19:35:21,441; -1296
19:35:21,445; -1295
19:35:21,449; -1281
19:35:21,453; -1279
19:35:21,457; -1279
19:35:21,461; -1276
19:35:21,465; -1268
19:35:21,469; -1277
19:35:21,473; -1258
19:35:21,477; -1256
19:35:21,480; -1254
19:35:21,484; -1250
19:35:21,488; -1241
19:35:21,492; -1231
19:35:21,496; -1225
19:35:21,500; -1225
19:35:21,504; -1218
19:35:21,508; -1203
19:35:21,512; -1193
19:35:21,516; -1189
19:35:21,520; -1167
19:35:21,523; -1154
19:35:21,527; -1144
19:35:21,531; -1132
19:35:21,535; -1113
19:35:21,539; -1097
19:35:21,543; -1074
19:35:21,547; -1061
19:35:21,551; -1038
19:35:21,555; -1029
19:35:21,559; -1005
19:35:21,562; -992
19:35:21,566; -967
19:35:21,570; -952
19:35:21,574; -926
19:35:21,578; -926
19:35:21,582; -897
19:35:21,586; -891
19:35:21,590; -873
19:35:21,594; -863
19:35:21,598; -852
19:35:21,602; -825
19:35:21,605; -820
19:35:21,609; -816
19:35:21,613; -803
19:35:21,617; -807
19:35:21,621; -814
19:35:21,625; -830
19:35:21,629; -846
19:35:21,633; -861
19:35:21,637; -887
19:35:21,641; -904
19:35:21,645; -932
19:35:21,648; -951
19:35:21,652; -977
19:35:21,656; -997
19:35:21,660; -1033
19:35:21,664; -1042
19:35:21,668; -1061
19:35:21,672; -1077
19:35:21,676; -1081
19:35:21,680; -1088
19:35:21,684; -1092
19:35:21,687; -1091
19:35:21,691; -1095
19:35:21,695; -1095
19:35:21,699; -1092
19:35:21,703; -1094
19:35:21,707; -1088
19:35:21,711; -1089
19:35:21,715; -1085
19:35:21,719; -1083
19:35:21,723; -1076
19:35:21,727; -1075
19:35:21,730; -1072
19:35:21,734; -1076
19:35:21,738; -1074
19:35:21,742; -1072
19:35:21,746; -1077
19:35:21,750; -1075
19:35:21,754; -1080
19:35:21,758; -1077
19:35:21,762; -1075
19:35:21,766; -1088
19:35:21,770; -1096
19:35:21,773; -1089
19:35:21,777; -1099
19:35:21,781; -1107
19:35:21,785; -1105
19:35:21,789; -1104
19:35:21,793; -1114
19:35:21,797; -1120
19:35:21,801; -1117
19:35:21,805; -1127
19:35:21,809; -1133
19:35:21,812; -1142
19:35:21,816; -1139
19:35:21,820; -1143
19:35:21,824; -1134
19:35:21,828; -1142
19:35:21,832; -1146
19:35:21,836; -1137
19:35:21,840; -1147
19:35:21,844; -1154
19:35:21,848; -1152
19:35:21,852; -1152
19:35:21,855; -1153
19:35:21,859; -1162
19:35:21,863; -1163
19:35:21,867; -1156
19:35:21,871; -1167
19:35:21,875; -1159
19:35:21,879; -1159
19:35:21,883; -1161
19:35:21,887; -1157
19:35:21,891; -1165
19:35:21,895; -1160
19:35:21,898; -1165
19:35:21,902; -1166
19:35:21,906; -1158
19:35:21,910; -1149
19:35:21,914; -1148
19:35:21,918; -1157
19:35:21,922; -1168
19:35:21,926; -1158
19:35:21,930; -1165
19:35:21,934; -1174
19:35:21,937; -1165
19:35:21,941; -1163
19:35:21,945; -1164
19:35:21,949; -1160
19:35:21,953; -1157
19:35:21,957; -1157
19:35:21,961; -1156
19:35:21,965; -1156
19:35:21,969; -1154
19:35:21,973; -1170
19:35:21,977; -1156
19:35:21,980; -1151
19:35:21,984; -1164
19:35:21,988; -1160
19:35:21,992; -1153
19:35:21,996; -1150
19:35:22,000; -1148
19:35:22,004; -1156
19:35:22,008; -1148
19:35:22,012; -1135
19:35:22,016; -1130
19:35:22,020; -1130
19:35:22,023; -1114
19:35:22,027; -1087
19:35:22,031; -1074
19:35:22,035; -1064
19:35:22,039; -1036
19:35:22,043; -1021
19:35:22,047; -999
19:35:22,051; -995
19:35:22,055; -982
19:35:22,059; -981
19:35:22,062; -995
19:35:22,066; -1011
19:35:22,070; -1025
19:35:22,074; -1033
19:35:22,078; -1034
19:35:22,082; -1046
19:35:22,086; -1044
19:35:22,090; -1048
19:35:22,094; -1067
19:35:22,098; -1086
19:35:22,102; -1115
19:35:22,105; -1132
19:35:22,109; -1144
19:35:22,113; -1154
19:35:22,117; -1156
19:35:22,121; -1143
19:35:22,125; -1142
19:35:22,129; -1148
19:35:22,133; -1147
19:35:22,137; -1136
19:35:22,141; -1144
19:35:22,145; -1134
19:35:22,148; -1135
19:35:22,152; -1140
19:35:22,156; -1149
19:35:22,160; -1183
19:35:22,164; -1175
19:35:22,168; -1134
19:35:22,172; -1018
19:35:22,176; -844
19:35:22,180; -527
19:35:22,184; 2
19:35:22,187; 508
19:35:22,191; 1052
19:35:22,195; 1264
19:35:22,199; 1371
19:35:22,203; 1153
19:35:22,207; 523
19:35:22,211; -363
19:35:22,215; -985
19:35:22,219; -1304
19:35:22,223; -1466
19:35:22,227; -1263
19:35:22,230; -1048
19:35:22,234; -932
19:35:22,238; -949
19:35:22,242; -1115
19:35:22,246; -1169
19:35:22,250; -1136
19:35:22,254; -1104
19:35:22,258; -1072
19:35:22,262; -1057
19:35:22,266; -1161
19:35:22,270; -1145
19:35:22,273; -1093
19:35:22,277; -1087
19:35:22,281; -1097
19:35:22,285; -1096
19:35:22,289; -1106
19:35:22,293; -1088
19:35:22,297; -1080
19:35:22,301; -1074
19:35:22,305; -1070
19:35:22,309; -1082
19:35:22,312; -1077
19:35:22,316; -1071
19:35:22,320; -1063
19:35:22,324; -1044
19:35:22,328; -1054
19:35:22,332; -1049
19:35:22,336; -1041
19:35:22,340; -1026
19:35:22,344; -1018
19:35:22,348; -1006
19:35:22,352; -1002
19:35:22,355; -999
19:35:22,359; -986
19:35:22,363; -973
19:35:22,367; -956
19:35:22,371; -950
19:35:22,375; -942
19:35:22,379; -928
19:35:22,383; -906
19:35:22,387; -900
19:35:22,391; -890
19:35:22,395; -866
19:35:22,398; -836
19:35:22,402; -820
19:35:22,406; -801
19:35:22,410; -770
19:35:22,414; -758
19:35:22,418; -724
19:35:22,422; -716
19:35:22,426; -695
19:35:22,430; -672
19:35:22,434; -650
19:35:22,438; -638
19:35:22,441; -620
19:35:22,445; -601
19:35:22,449; -584
19:35:22,453; -582
19:35:22,457; -571
19:35:22,461; -571
19:35:22,465; -571
19:35:22,469; -587
19:35:22,473; -603
19:35:22,477; -633
19:35:22,480; -664
19:35:22,484; -707
19:35:22,488; -741
19:35:22,492; -768
19:35:22,496; -788
19:35:22,500; -821
19:35:22,504; -835
19:35:22,508; -858
19:35:22,512; -874
19:35:22,516; -900
19:35:22,520; -910
19:35:22,523; -919
19:35:22,527; -943
19:35:22,531; -948
19:35:22,535; -949
19:35:22,539; -962
19:35:22,543; -948
19:35:22,547; -961
19:35:22,551; -947
19:35:22,555; -946
19:35:22,559; -939
19:35:22,562; -943
19:35:22,566; -929
19:35:22,570; -938
19:35:22,574; -929
19:35:22,578; -927
19:35:22,582; -927
19:35:22,586; -918
19:35:22,590; -916
19:35:22,594; -920
19:35:22,598; -917
19:35:22,602; -921
19:35:22,605; -913
19:35:22,609; -919
19:35:22,613; -909
19:35:22,617; -916
19:35:22,621; -924
19:35:22,625; -934
19:35:22,629; -933
19:35:22,633; -943
19:35:22,637; -934
19:35:22,641; -936
19:35:22,645; -942
19:35:22,648; -943
19:35:22,652; -956
19:35:22,656; -977
19:35:22,660; -972
19:35:22,664; -984
19:35:22,668; -976
19:35:22,672; -980
19:35:22,676; -984
19:35:22,680; -987
19:35:22,684; -989
19:35:22,688; -988
19:35:22,691; -984
19:35:22,695; -993
19:35:22,699; -994
19:35:22,703; -1002
19:35:22,707; -1004
19:35:22,711; -1009
19:35:22,715; -1011
19:35:22,719; -998
19:35:22,723; -998
19:35:22,727; -988
19:35:22,730; -985
19:35:22,734; -972
19:35:22,738; -938
19:35:22,742; -943
19:35:22,746; -921
19:35:22,750; -909
19:35:22,754; -901
19:35:22,758; -877
19:35:22,762; -854
19:35:22,766; -857
19:35:22,770; -845
19:35:22,773; -843
19:35:22,777; -873
19:35:22,781; -890
19:35:22,785; -901
19:35:22,789; -920
19:35:22,793; -917
19:35:22,797; -925
19:35:22,801; -953
19:35:22,805; -963
19:35:22,809; -993
19:35:22,812; -1031
19:35:22,816; -1058
19:35:22,820; -1058
19:35:22,824; -1057
19:35:22,828; -1068
19:35:22,832; -1063
19:35:22,836; -1053
19:35:22,840; -1056
19:35:22,844; -1046
19:35:22,848; -1055
19:35:22,852; -1055
19:35:22,855; -1036
19:35:22,859; -1059
19:35:22,863; -1060
19:35:22,867; -1049
19:35:22,871; -1062
19:35:22,875; -1080
19:35:22,879; -1106
19:35:22,883; -1061
19:35:22,887; -963
19:35:22,891; -805
19:35:22,895; -485
19:35:22,898; -20
19:35:22,902; 529
19:35:22,906; 1085
19:35:22,910; 1283
19:35:22,914; 1408
19:35:22,918; 1296
19:35:22,922; 694
19:35:22,926; 15
19:35:22,930; -803
19:35:22,934; -1225
19:35:22,938; -1376
19:35:22,941; -1297
19:35:22,945; -1158
19:35:22,949; -1004
19:35:22,953; -828
19:35:22,957; -994
19:35:22,961; -1152
19:35:22,965; -1108
19:35:22,969; -1021
19:35:22,973; -1021
19:35:22,977; -1045
19:35:22,980; -1041
19:35:22,984; -1108
19:35:22,988; -1071
19:35:22,992; -1029
19:35:22,996; -1042
19:35:23,000; -1057
19:35:23,004; -1048
19:35:23,008; -1048
19:35:23,012; -1033
19:35:23,016; -1058
19:35:23,020; -1052
19:35:23,023; -1032
19:35:23,027; -1029
19:35:23,031; -1036
19:35:23,035; -1031
19:35:23,039; -994
19:35:23,043; -995
19:35:23,047; -1018
19:35:23,051; -999
19:35:23,055; -999
19:35:23,059; -973
19:35:23,062; -976
19:35:23,066; -969
19:35:23,070; -948
19:35:23,074; -927
19:35:23,078; -939
19:35:23,082; -927
19:35:23,086; -905
19:35:23,090; -904
19:35:23,094; -878
19:35:23,098; -878
19:35:23,102; -848
19:35:23,105; -834
19:35:23,109; -832
19:35:23,113; -806
19:35:23,117; -776
19:35:23,121; -756
19:35:23,125; -732
19:35:23,129; -701
19:35:23,133; -684
19:35:23,137; -662
19:35:23,141; -631
19:35:23,145; -620
19:35:23,148; -581
19:35:23,152; -565
19:35:23,156; -537
19:35:23,160; -539
19:35:23,164; -527
19:35:23,168; -517
19:35:23,172; -522
19:35:23,176; -544
19:35:23,180; -552
19:35:23,184; -580
19:35:23,187; -630
19:35:23,191; -652
19:35:23,195; -689
19:35:23,199; -708
19:35:23,203; -754
19:35:23,207; -774
19:35:23,211; -813
19:35:23,215; -844
19:35:23,219; -886
19:35:23,223; -912
19:35:23,227; -922
19:35:23,230; -933
19:35:23,234; -960
19:35:23,238; -963
19:35:23,242; -984
19:35:23,246; -1004
19:35:23,250; -1007
19:35:23,254; -1025
19:35:23,258; -1006
19:35:23,262; -993
19:35:23,266; -1015
19:35:23,270; -993
19:35:23,273; -984
19:35:23,277; -976
19:35:23,281; -968
19:35:23,285; -961
19:35:23,289; -958
19:35:23,293; -951
19:35:23,297; -964
19:35:23,301; -968
19:35:23,305; -946
19:35:23,309; -943
19:35:23,312; -954
19:35:23,316; -942
19:35:23,320; -952
19:35:23,324; -945
19:35:23,328; -962
19:35:23,332; -968
19:35:23,336; -952
19:35:23,340; -956
19:35:23,344; -956
19:35:23,348; -950
19:35:23,352; -945
19:35:23,355; -946
19:35:23,359; -962
19:35:23,363; -961
19:35:23,367; -955
19:35:23,371; -966
19:35:23,375; -942
19:35:23,379; -918
19:35:23,383; -926
19:35:23,387; -888
19:35:23,391; -893
19:35:23,395; -878
19:35:23,398; -863
19:35:23,402; -850
19:35:23,406; -850
19:35:23,410; -840
19:35:23,414; -873
19:35:23,418; -874
19:35:23,422; -904
19:35:23,426; -901
19:35:23,430; -892
19:35:23,434; -903
19:35:23,437; -899
19:35:23,441; -919
19:35:23,445; -963
19:35:23,449; -982
19:35:23,453; -1014
19:35:23,457; -1017
19:35:23,461; -1032
19:35:23,465; -1033
19:35:23,469; -1027
19:35:23,473; -1019
19:35:23,477; -1017
19:35:23,480; -1023
19:35:23,484; -1014
19:35:23,488; -1016
19:35:23,492; -1033
19:35:23,496; -1020
19:35:23,500; -1035
19:35:23,504; -1020
19:35:23,508; -1003
19:35:23,512; -1012
19:35:23,516; -1042
19:35:23,520; -1051
19:35:23,523; -1028
19:35:23,527; -978
19:35:23,531; -813
19:35:23,535; -481
19:35:23,539; 182
19:35:23,543; 667
19:35:23,547; 1077
19:35:23,551; 1497
19:35:23,555; 1492
19:35:23,559; 1301
19:35:23,562; 643
19:35:23,566; -103
19:35:23,570; -703
19:35:23,574; -1223
19:35:23,578; -1354
19:35:23,582; -1191
19:35:23,586; -1152
19:35:23,590; -907
19:35:23,594; -960
19:35:23,598; -999
19:35:23,602; -1030
19:35:23,605; -1044
19:35:23,609; -996
19:35:23,613; -942
19:35:23,617; -1036
19:35:23,621; -1096
19:35:23,625; -1055
19:35:23,629; -1063
19:35:23,633; -988
19:35:23,637; -988
19:35:23,641; -1039
19:35:23,645; -996
19:35:23,648; -1017
19:35:23,652; -1044
19:35:23,656; -1015
19:35:23,660; -1030
19:35:23,664; -983
19:35:23,668; -988
19:35:23,672; -1009
19:35:23,676; -1003
19:35:23,680; -1009
19:35:23,684; -1007
19:35:23,687; -949
19:35:23,691; -1007
19:35:23,695; -1026
19:35:23,699; -1025
19:35:23,703; -1011
19:35:23,707; -960
19:35:23,711; -948
19:35:23,715; -892
19:35:23,719; -891
19:35:23,723; -879
19:35:23,727; -898
19:35:23,730; -891
19:35:23,734; -861
19:35:23,738; -834
19:35:23,742; -887
19:35:23,746; -870
19:35:23,750; -870
19:35:23,754; -907
19:35:23,758; -820
19:35:23,762; -718
19:35:23,766; -737
19:35:23,770; -697
19:35:23,773; -629
19:35:23,777; -646
19:35:23,781; -701
19:35:23,785; -676
19:35:23,789; -639
19:35:23,793; -619
19:35:23,797; -583
19:35:23,801; -624
19:35:23,805; -583
19:35:23,809; -576
19:35:23,812; -587
19:35:23,816; -588
19:35:23,820; -603
19:35:23,824; -630
19:35:23,828; -646
19:35:23,832; -698
19:35:23,836; -760
19:35:23,840; -759
19:35:23,844; -793
19:35:23,848; -826
19:35:23,852; -837
19:35:23,855; -877
19:35:23,859; -918
19:35:23,863; -954
19:35:23,867; -945
19:35:23,871; -971
19:35:23,875; -974
19:35:23,879; -984
19:35:23,883; -970
19:35:23,887; -976
19:35:23,891; -979
19:35:23,895; -940
19:35:23,898; -956
19:35:23,902; -964
19:35:23,906; -940
19:35:23,910; -953
19:35:23,914; -1004
19:35:23,918; -967
19:35:23,922; -938
19:35:23,926; -944
19:35:23,930; -927
19:35:23,934; -892
19:35:23,938; -927
19:35:23,941; -900
19:35:23,945; -896
19:35:23,949; -917
19:35:23,953; -902
19:35:23,957; -887
19:35:23,961; -911
19:35:23,965; -882
19:35:23,969; -906
19:35:23,973; -948
19:35:23,977; -931
19:35:23,980; -925
19:35:23,984; -948
19:35:23,988; -932
19:35:23,992; -918
19:35:23,996; -924
19:35:24,000; -921
19:35:24,004; -923
19:35:24,008; -903
19:35:24,012; -880
19:35:24,016; -877
19:35:24,020; -854
19:35:24,023; -841
19:35:24,027; -800
19:35:24,031; -787
19:35:24,035; -777
19:35:24,039; -777
19:35:24,043; -786
19:35:24,047; -787
19:35:24,051; -770
19:35:24,055; -808
19:35:24,059; -783
19:35:24,062; -822
19:35:24,066; -846
19:35:24,070; -818
19:35:24,074; -826
19:35:24,078; -850
19:35:24,082; -860
19:35:24,086; -870
19:35:24,090; -949
19:35:24,094; -954
19:35:24,098; -932
19:35:24,102; -923
19:35:24,105; -933
19:35:24,109; -967
19:35:24,113; -957
19:35:24,117; -991
19:35:24,121; -1004
19:35:24,125; -965
19:35:24,129; -935
19:35:24,133; -938
19:35:24,137; -938
19:35:24,141; -975
19:35:24,145; -975
19:35:24,148; -993
19:35:24,152; -984
19:35:24,156; -982
19:35:24,160; -927
19:35:24,164; -873
19:35:24,168; -727
19:35:24,172; -409
19:35:24,176; 92
19:35:24,180; 589
19:35:24,184; 1213
19:35:24,188; 1531
19:35:24,191; 1607
19:35:24,195; 1520
19:35:24,199; 1018
19:35:24,203; 263
19:35:24,207; -461
19:35:24,211; -1032
19:35:24,215; -1159
19:35:24,219; -1251
19:35:24,223; -1007
19:35:24,227; -924
19:35:24,230; -765
19:35:24,234; -865
19:35:24,238; -985
19:35:24,242; -966
19:35:24,246; -980
19:35:24,250; -845
19:35:24,254; -944
19:35:24,258; -961
19:35:24,262; -950
19:35:24,266; -954
19:35:24,270; -934
19:35:24,273; -930
19:35:24,277; -958
19:35:24,281; -946
19:35:24,285; -967
19:35:24,289; -944
19:35:24,293; -918
19:35:24,297; -940
19:35:24,301; -879
19:35:24,305; -887
19:35:24,309; -879
19:35:24,312; -881
19:35:24,316; -832
19:35:24,320; -786
19:35:24,324; -801
19:35:24,328; -799
19:35:24,332; -816
19:35:24,336; -761
19:35:24,340; -795
19:35:24,344; -794
19:35:24,348; -797
19:35:24,352; -732
19:35:24,355; -737
19:35:24,359; -779
19:35:24,363; -678
19:35:24,367; -659
19:35:24,371; -643
19:35:24,375; -647
19:35:24,379; -656
19:35:24,383; -645
19:35:24,387; -640
19:35:24,391; -637
19:35:24,395; -576
19:35:24,398; -574
19:35:24,402; -524
19:35:24,406; -490
19:35:24,410; -502
19:35:24,414; -450
19:35:24,418; -354
19:35:24,422; -379
19:35:24,426; -357
19:35:24,430; -320
19:35:24,434; -346
19:35:24,438; -333
19:35:24,441; -360
19:35:24,445; -318
19:35:24,449; -310
19:35:24,453; -296
19:35:24,457; -312
19:35:24,461; -333
19:35:24,465; -366
19:35:24,469; -418
19:35:24,473; -471
19:35:24,477; -497
19:35:24,480; -475
19:35:24,484; -500
19:35:24,488; -511
19:35:24,492; -534
19:35:24,496; -544
19:35:24,500; -575
19:35:24,504; -614
19:35:24,508; -603
19:35:24,512; -632
19:35:24,516; -635
19:35:24,520; -583
19:35:24,523; -596
19:35:24,527; -622
19:35:24,531; -656
19:35:24,535; -630
19:35:24,539; -678
19:35:24,543; -645
19:35:24,547; -629
19:35:24,551; -614
19:35:24,555; -615
19:35:24,559; -635
19:35:24,562; -688
19:35:24,566; -700
19:35:24,570; -656
19:35:24,574; -646
19:35:24,578; -627
19:35:24,582; -630
19:35:24,586; -587
19:35:24,590; -555
19:35:24,594; -598
19:35:24,598; -569
19:35:24,602; -573
19:35:24,605; -581
19:35:24,609; -587
19:35:24,613; -608
19:35:24,617; -592
19:35:24,621; -559
19:35:24,625; -568
19:35:24,629; -555
19:35:24,633; -495
19:35:24,637; -489
19:35:24,641; -500
19:35:24,645; -467
19:35:24,648; -489
19:35:24,652; -476
19:35:24,656; -472
19:35:24,660; -452
19:35:24,664; -466
19:35:24,668; -480
19:35:24,672; -519
19:35:24,676; -577
19:35:24,680; -636
19:35:24,684; -631
19:35:24,687; -623
19:35:24,691; -606
19:35:24,695; -617
19:35:24,699; -601
19:35:24,703; -610
19:35:24,707; -623
19:35:24,711; -648
19:35:24,715; -638
19:35:24,719; -645
19:35:24,723; -667
19:35:24,727; -682
19:35:24,730; -661
19:35:24,734; -690
19:35:24,738; -695
19:35:24,742; -684
19:35:24,746; -700
19:35:24,750; -679
19:35:24,754; -668
19:35:24,758; -661
19:35:24,762; -656
19:35:24,766; -674
19:35:24,770; -688
19:35:24,773; -716
19:35:24,777; -732
19:35:24,781; -685
19:35:24,785; -603
19:35:24,789; -389
19:35:24,793; -24
19:35:24,797; 532
19:35:24,801; 1216
19:35:24,805; 1740
19:35:24,809; 1995
19:35:24,812; 2087
19:35:24,816; 1787
19:35:24,820; 1088
19:35:24,824; 267
19:35:24,828; -348
19:35:24,832; -827
19:35:24,836; -927
19:35:24,840; -773
19:35:24,844; -624
19:35:24,848; -526
19:35:24,852; -514
19:35:24,855; -545
19:35:24,859; -705
19:35:24,863; -651
19:35:24,867; -629
19:35:24,871; -550
19:35:24,875; -613
19:35:24,879; -615
19:35:24,883; -651
19:35:24,887; -601
19:35:24,891; -570
19:35:24,895; -595
19:35:24,898; -613
19:35:24,902; -598
19:35:24,906; -563
19:35:24,910; -580
19:35:24,914; -571
19:35:24,918; -550
19:35:24,922; -553
19:35:24,926; -537
19:35:24,930; -526
19:35:24,934; -532
19:35:24,937; -538
19:35:24,941; -492
19:35:24,945; -512
19:35:24,949; -523
19:35:24,953; -488
19:35:24,957; -481
19:35:24,961; -471
19:35:24,965; -431
19:35:24,969; -404
19:35:24,973; -396
19:35:24,977; -370
19:35:24,980; -379
19:35:24,984; -393
19:35:24,988; -373
19:35:24,992; -335
19:35:24,996; -321
19:35:25,000; -304
19:35:25,004; -269
19:35:25,008; -241
19:35:25,012; -230
19:35:25,016; -213
19:35:25,020; -154
19:35:25,023; -176
19:35:25,027; -129
19:35:25,031; -130
19:35:25,035; -89
19:35:25,039; -65
19:35:25,043; -64
19:35:25,047; -47
19:35:25,051; -52
19:35:25,055; -51
19:35:25,059; -41
19:35:25,062; -72
19:35:25,066; -76
19:35:25,070; -94
19:35:25,074; -132
19:35:25,078; -162
19:35:25,082; -184
19:35:25,086; -219
19:35:25,090; -236
19:35:25,094; -285
19:35:25,098; -307
19:35:25,102; -328
19:35:25,105; -347
19:35:25,109; -362
19:35:25,113; -385
19:35:25,117; -420
19:35:25,121; -426
19:35:25,125; -434
19:35:25,129; -435
19:35:25,133; -431
19:35:25,137; -399
19:35:25,141; -404
19:35:25,145; -386
19:35:25,148; -377
19:35:25,152; -374
19:35:25,156; -375
19:35:25,160; -376
19:35:25,164; -369
19:35:25,168; -363
19:35:25,172; -365
19:35:25,176; -359
19:35:25,180; -366
19:35:25,184; -356
19:35:25,187; -345
19:35:25,191; -352
19:35:25,195; -342
19:35:25,199; -320
19:35:25,203; -334
19:35:25,207; -327
19:35:25,211; -312
19:35:25,215; -313
19:35:25,219; -326
19:35:25,223; -297
19:35:25,227; -290
19:35:25,230; -300
19:35:25,234; -304
19:35:25,238; -314
19:35:25,242; -316
19:35:25,246; -334
19:35:25,250; -346
19:35:25,254; -335
19:35:25,258; -340
19:35:25,262; -348
19:35:25,266; -357
19:35:25,270; -358
19:35:25,273; -347
19:35:25,277; -336
19:35:25,281; -352
19:35:25,285; -351
19:35:25,289; -339
19:35:25,293; -327
19:35:25,297; -319
19:35:25,301; -288
19:35:25,305; -261
19:35:25,309; -277
19:35:25,312; -246
19:35:25,316; -253
19:35:25,320; -239
19:35:25,324; -202
19:35:25,328; -199
19:35:25,332; -184
19:35:25,336; -184
19:35:25,340; -214
19:35:25,344; -235
19:35:25,348; -245
19:35:25,352; -264
19:35:25,355; -275
19:35:25,359; -268
19:35:25,363; -264
19:35:25,367; -263
19:35:25,371; -290
19:35:25,375; -345
19:35:25,379; -353
19:35:25,383; -362
19:35:25,387; -365
19:35:25,391; -358
19:35:25,395; -312
19:35:25,398; -338
19:35:25,402; -383
19:35:25,406; -387
19:35:25,410; -377
19:35:25,414; -374
19:35:25,418; -346
19:35:25,422; -328
19:35:25,426; -323
19:35:25,430; -360
19:35:25,434; -374
19:35:25,437; -379
19:35:25,441; -414
19:35:25,445; -412
19:35:25,449; -380
19:35:25,453; -292
19:35:25,457; -100
19:35:25,461; 301
19:35:25,465; 820
19:35:25,469; 1371
19:35:25,473; 1953
19:35:25,477; 2270
19:35:25,480; 2233
19:35:25,484; 2139
19:35:25,488; 1508
19:35:25,492; 633
19:35:25,496; 18
19:35:25,500; -502
19:35:25,504; -467
19:35:25,508; -507
19:35:25,512; -412
19:35:25,516; -135
19:35:25,520; -223
19:35:25,523; -399
19:35:25,527; -412
19:35:25,531; -441
19:35:25,535; -326
19:35:25,539; -355
19:35:25,543; -344
19:35:25,547; -411
19:35:25,551; -372
19:35:25,555; -383
19:35:25,559; -392
19:35:25,562; -379
19:35:25,566; -423
19:35:25,570; -404
19:35:25,574; -380
19:35:25,578; -358
19:35:25,582; -314
19:35:25,586; -353
19:35:25,590; -372
19:35:25,594; -380
19:35:25,598; -409
19:35:25,602; -398
19:35:25,605; -362
19:35:25,609; -356
19:35:25,613; -340
19:35:25,617; -332
19:35:25,621; -333
19:35:25,625; -320
19:35:25,629; -300
19:35:25,633; -279
19:35:25,637; -281
19:35:25,641; -281
19:35:25,645; -273
19:35:25,648; -276
19:35:25,652; -248
19:35:25,656; -241
19:35:25,660; -208
19:35:25,664; -203
19:35:25,668; -167
19:35:25,672; -146
19:35:25,676; -138
19:35:25,680; -133
19:35:25,684; -100
19:35:25,688; -88
19:35:25,691; -50
19:35:25,695; -37
19:35:25,699; 0
19:35:25,703; 27
19:35:25,707; 45
19:35:25,711; 61
19:35:25,715; 83
19:35:25,719; 110
19:35:25,723; 112
19:35:25,727; 118
19:35:25,730; 123
19:35:25,734; 122
19:35:25,738; 99
19:35:25,742; 100
19:35:25,746; 79
19:35:25,750; 57
19:35:25,754; 24
19:35:25,758; -20
19:35:25,762; -50
19:35:25,766; -82
19:35:25,770; -124
19:35:25,773; -150
19:35:25,777; -164
19:35:25,781; -180
19:35:25,785; -203
19:35:25,789; -218
19:35:25,793; -230
19:35:25,797; -266
19:35:25,801; -289
19:35:25,805; -282
19:35:25,809; -295
19:35:25,812; -296
19:35:25,816; -287
19:35:25,820; -282
19:35:25,824; -277
19:35:25,828; -286
19:35:25,832; -275
19:35:25,836; -245
19:35:25,840; -259
19:35:25,844; -254
19:35:25,848; -237
19:35:25,852; -219
19:35:25,855; -210
19:35:25,859; -211
19:35:25,863; -219
19:35:25,867; -210
19:35:25,871; -225
19:35:25,875; -223
19:35:25,879; -213
19:35:25,883; -203
19:35:25,887; -204
19:35:25,891; -220
19:35:25,895; -217
19:35:25,898; -214
19:35:25,902; -212
19:35:25,906; -227
19:35:25,910; -228
19:35:25,914; -237
19:35:25,918; -247
19:35:25,922; -249
19:35:25,926; -249
19:35:25,930; -259
19:35:25,934; -259
19:35:25,938; -276
19:35:25,941; -292
19:35:25,945; -280
19:35:25,949; -272
19:35:25,953; -271
19:35:25,957; -262
19:35:25,961; -263
19:35:25,965; -260
19:35:25,969; -241
19:35:25,973; -241
19:35:25,977; -225
19:35:25,980; -201
19:35:25,984; -184
19:35:25,988; -204
19:35:25,992; -187
19:35:25,996; -180
19:35:26,000; -169
19:35:26,004; -150
19:35:26,008; -164
19:35:26,012; -193
19:35:26,016; -211
19:35:26,020; -233
19:35:26,023; -246
19:35:26,027; -240
19:35:26,031; -253
19:35:26,035; -272
19:35:26,039; -303
19:35:26,043; -337
19:35:26,047; -374
19:35:26,051; -364
19:35:26,055; -371
19:35:26,059; -367
19:35:26,062; -380
19:35:26,066; -366
19:35:26,070; -373
19:35:26,074; -374
19:35:26,078; -371
19:35:26,082; -382
19:35:26,086; -394
19:35:26,090; -395
19:35:26,094; -397
19:35:26,098; -387
19:35:26,102; -392
19:35:26,105; -407
19:35:26,109; -428
19:35:26,113; -439
19:35:26,117; -402
19:35:26,121; -331
19:35:26,125; -151
19:35:26,129; 254
19:35:26,133; 1005
19:35:26,137; 1358
19:35:26,141; 2040
19:35:26,145; 2102
19:35:26,148; 2125
19:35:26,152; 1729
19:35:26,156; 974
19:35:26,160; 301
19:35:26,164; -406
19:35:26,168; -531
19:35:26,172; -562
19:35:26,176; -499
19:35:26,180; -339
19:35:26,184; -243
19:35:26,187; -269
19:35:26,191; -468
19:35:26,195; -526
19:35:26,199; -480
19:35:26,203; -400
19:35:26,207; -413
19:35:26,211; -485
19:35:26,215; -448
19:35:26,219; -443
19:35:26,223; -407
19:35:26,227; -408
19:35:26,230; -407
19:35:26,234; -444
19:35:26,238; -406
19:35:26,242; -401
19:35:26,246; -408
19:35:26,250; -399
19:35:26,254; -395
19:35:26,258; -440
19:35:26,262; -400
19:35:26,266; -412
19:35:26,270; -414
19:35:26,273; -397
19:35:26,277; -371
19:35:26,281; -382
19:35:26,285; -375
19:35:26,289; -372
19:35:26,293; -358
19:35:26,297; -352
19:35:26,301; -357
19:35:26,305; -333
19:35:26,309; -343
19:35:26,312; -338
19:35:26,316; -309
19:35:26,320; -298
19:35:26,324; -271
19:35:26,328; -272
19:35:26,332; -254
19:35:26,336; -223
19:35:26,340; -201
19:35:26,344; -178
19:35:26,348; -155
19:35:26,352; -138
19:35:26,355; -117
19:35:26,359; -100
19:35:26,363; -79
19:35:26,367; -51
19:35:26,371; -28
19:35:26,375; -11
19:35:26,379; 1
19:35:26,383; 12
19:35:26,387; 37
19:35:26,391; 54
19:35:26,395; 66
19:35:26,398; 80
19:35:26,402; 83
19:35:26,406; 71
19:35:26,410; 33
19:35:26,414; 5
19:35:26,418; -45
19:35:26,422; -81
19:35:26,426; -108
19:35:26,430; -140
19:35:26,434; -170
19:35:26,437; -192
19:35:26,441; -233
19:35:26,445; -248
19:35:26,449; -263
19:35:26,453; -288
19:35:26,457; -306
19:35:26,461; -300
19:35:26,465; -337
19:35:26,469; -338
19:35:26,473; -357
19:35:26,477; -363
19:35:26,480; -360
19:35:26,484; -358
19:35:26,488; -349
19:35:26,492; -341
19:35:26,496; -330
19:35:26,500; -338
19:35:26,504; -339
19:35:26,508; -341
19:35:26,512; -329
19:35:26,516; -331
19:35:26,520; -336
19:35:26,523; -324
19:35:26,527; -320
19:35:26,531; -320
19:35:26,535; -317
19:35:26,539; -318
19:35:26,543; -316
19:35:26,547; -314
19:35:26,551; -317
19:35:26,555; -310
19:35:26,559; -301
19:35:26,562; -298
19:35:26,566; -286
19:35:26,570; -275
19:35:26,574; -261
19:35:26,578; -243
19:35:26,582; -245
19:35:26,586; -244
19:35:26,590; -226
19:35:26,594; -216
19:35:26,598; -215
19:35:26,602; -207
19:35:26,605; -207
19:35:26,609; -231
19:35:26,613; -250
19:35:26,617; -284
19:35:26,621; -294
19:35:26,625; -311
19:35:26,629; -309
19:35:26,633; -339
19:35:26,637; -343
19:35:26,641; -379
19:35:26,645; -404
19:35:26,648; -436
19:35:26,652; -444
19:35:26,656; -442
19:35:26,660; -443
19:35:26,664; -444
19:35:26,668; -431
19:35:26,672; -450
19:35:26,676; -446
19:35:26,680; -451
19:35:26,684; -462
19:35:26,687; -460
19:35:26,691; -467
19:35:26,695; -465
19:35:26,699; -458
19:35:26,703; -459
19:35:26,707; -468
19:35:26,711; -480
19:35:26,715; -504
19:35:26,719; -467
19:35:26,723; -421
19:35:26,727; -280
19:35:26,730; 58
19:35:26,734; 778
19:35:26,738; 1309
19:35:26,742; 1943
19:35:26,746; 2062
19:35:26,750; 2146
19:35:26,754; 1748
19:35:26,758; 829
19:35:26,762; 234
19:35:26,766; -425
19:35:26,770; -527
19:35:26,773; -629
19:35:26,777; -511
19:35:26,781; -415
19:35:26,785; -258
19:35:26,789; -397
19:35:26,793; -527
19:35:26,797; -577
19:35:26,801; -499
19:35:26,805; -458
19:35:26,809; -505
19:35:26,812; -465
19:35:26,816; -496
19:35:26,820; -515
19:35:26,824; -446
19:35:26,828; -490
19:35:26,832; -494
19:35:26,836; -493
19:35:26,840; -482
19:35:26,844; -490
19:35:26,848; -482
19:35:26,852; -479
19:35:26,855; -472
19:35:26,859; -465
19:35:26,863; -474
19:35:26,867; -455
19:35:26,871; -454
19:35:26,875; -442
19:35:26,879; -446
19:35:26,883; -430
19:35:26,887; -418
19:35:26,891; -416
19:35:26,895; -414
19:35:26,898; -394
19:35:26,902; -402
19:35:26,906; -393
19:35:26,910; -379
19:35:26,914; -373
19:35:26,918; -355
19:35:26,922; -360
19:35:26,926; -343
19:35:26,930; -322
19:35:26,934; -303
19:35:26,937; -277
19:35:26,941; -269
19:35:26,945; -233
19:35:26,949; -208
19:35:26,953; -200
19:35:26,957; -172
19:35:26,961; -139
19:35:26,965; -125
19:35:26,969; -100
19:35:26,973; -80
19:35:26,977; -64
19:35:26,980; -42
19:35:26,984; -34
19:35:26,988; -11
19:35:26,992; 5
19:35:26,996; 21
19:35:27,000; -2
19:35:27,004; 1
19:35:27,008; -42
19:35:27,012; -82
19:35:27,016; -112
19:35:27,020; -143
19:35:27,023; -167
19:35:27,027; -196
19:35:27,031; -226
19:35:27,035; -256
19:35:27,039; -276
19:35:27,043; -313
19:35:27,047; -342
19:35:27,051; -368
19:35:27,055; -378
19:35:27,059; -407
19:35:27,062; -416
19:35:27,066; -427
19:35:27,070; -433
19:35:27,074; -424
19:35:27,078; -427
19:35:27,082; -431
19:35:27,086; -426
19:35:27,090; -429
19:35:27,094; -431
19:35:27,098; -434
19:35:27,102; -428
19:35:27,105; -420
19:35:27,109; -414
19:35:27,113; -413
19:35:27,117; -429
19:35:27,121; -420
19:35:27,125; -423
19:35:27,129; -434
19:35:27,133; -427
19:35:27,137; -411
19:35:27,141; -429
19:35:27,145; -432
19:35:27,148; -425
19:35:27,152; -431
19:35:27,156; -430
19:35:27,160; -423
19:35:27,164; -427
19:35:27,168; -426
19:35:27,172; -438
19:35:27,176; -448
19:35:27,180; -450
19:35:27,184; -472
19:35:27,188; -459
19:35:27,191; -440
19:35:27,195; -458
19:35:27,199; -430
19:35:27,203; -407
19:35:27,207; -419
19:35:27,211; -399
19:35:27,215; -395
19:35:27,219; -403
19:35:27,223; -401
19:35:27,227; -393
19:35:27,230; -413
19:35:27,234; -415
19:35:27,238; -439
19:35:27,242; -472
19:35:27,246; -488
19:35:27,250; -499
19:35:27,254; -530
19:35:27,258; -527
19:35:27,262; -546
19:35:27,266; -595
19:35:27,270; -622
19:35:27,273; -661
19:35:27,277; -673
19:35:27,281; -660
19:35:27,285; -654
19:35:27,289; -647
19:35:27,293; -625
19:35:27,297; -644
19:35:27,301; -666
19:35:27,305; -677
19:35:27,309; -695
19:35:27,312; -694
19:35:27,316; -691
19:35:27,320; -695
19:35:27,324; -682
19:35:27,328; -700
19:35:27,332; -730
19:35:27,336; -744
19:35:27,340; -737
19:35:27,344; -696
19:35:27,348; -570
19:35:27,352; -263
19:35:27,355; 142
19:35:27,359; 662
19:35:27,363; 1187
19:35:27,367; 1698
19:35:27,371; 1758
19:35:27,375; 1746
19:35:27,379; 1450
19:35:27,383; 783
19:35:27,387; -201
19:35:27,391; -639
19:35:27,395; -1010
19:35:27,398; -1118
19:35:27,402; -845
19:35:27,406; -787
19:35:27,410; -534
19:35:27,414; -630
19:35:27,418; -788
19:35:27,422; -785
19:35:27,426; -829
19:35:27,430; -721
19:35:27,434; -755
19:35:27,438; -732
19:35:27,441; -799
19:35:27,445; -759
19:35:27,449; -720
19:35:27,453; -738
19:35:27,457; -751
19:35:27,461; -735
19:35:27,465; -736
19:35:27,469; -757
19:35:27,473; -752
19:35:27,477; -728
19:35:27,480; -758
19:35:27,484; -753
19:35:27,488; -743
19:35:27,492; -725
19:35:27,496; -727
19:35:27,500; -731
19:35:27,504; -699
19:35:27,508; -704
19:35:27,512; -689
19:35:27,516; -691
19:35:27,520; -690
19:35:27,523; -706
19:35:27,527; -688
19:35:27,531; -681
19:35:27,535; -642
19:35:27,539; -659
19:35:27,543; -630
19:35:27,547; -621
19:35:27,551; -622
19:35:27,555; -614
19:35:27,559; -568
19:35:27,562; -551
19:35:27,566; -559
19:35:27,570; -524
19:35:27,574; -496
19:35:27,578; -489
19:35:27,582; -444
19:35:27,586; -411
19:35:27,590; -397
19:35:27,594; -366
19:35:27,598; -349
19:35:27,602; -318
19:35:27,605; -287
19:35:27,609; -316
19:35:27,613; -267
19:35:27,617; -269
19:35:27,621; -286
19:35:27,625; -260
19:35:27,629; -281
19:35:27,633; -286
19:35:27,637; -318
19:35:27,641; -329
19:35:27,645; -338
19:35:27,648; -382
19:35:27,652; -437
19:35:27,656; -460
19:35:27,660; -510
19:35:27,664; -541
19:35:27,668; -525
19:35:27,672; -548
19:35:27,676; -592
19:35:27,680; -599
19:35:27,684; -638
19:35:27,688; -652
19:35:27,691; -652
19:35:27,695; -639
19:35:27,699; -658
19:35:27,703; -671
19:35:27,707; -684
19:35:27,711; -686
19:35:27,715; -667
19:35:27,719; -655
19:35:27,723; -656
19:35:27,727; -651
19:35:27,730; -644
19:35:27,734; -672
19:35:27,738; -680
19:35:27,742; -650
19:35:27,746; -665
19:35:27,750; -659
19:35:27,754; -614
19:35:27,758; -614
19:35:27,762; -621
19:35:27,766; -617
19:35:27,770; -622
19:35:27,773; -640
19:35:27,777; -647
19:35:27,781; -623
19:35:27,785; -613
19:35:27,789; -622
19:35:27,793; -640
19:35:27,797; -668
19:35:27,801; -653
19:35:27,805; -630
19:35:27,809; -643
19:35:27,812; -640
19:35:27,816; -633
19:35:27,820; -635
19:35:27,824; -682
19:35:27,828; -661
19:35:27,832; -643
19:35:27,836; -639
19:35:27,840; -621
19:35:27,844; -604
19:35:27,848; -590
19:35:27,852; -610
19:35:27,855; -573
19:35:27,859; -527
19:35:27,863; -542
19:35:27,867; -510
19:35:27,871; -532
19:35:27,875; -566
19:35:27,879; -573
19:35:27,883; -617
19:35:27,887; -597
19:35:27,891; -588
19:35:27,895; -587
19:35:27,898; -629
19:35:27,902; -650
19:35:27,906; -683
19:35:27,910; -685
19:35:27,914; -734
19:35:27,918; -706
19:35:27,922; -747
19:35:27,926; -731
19:35:27,930; -747
19:35:27,934; -722
19:35:27,937; -755
19:35:27,941; -733
19:35:27,945; -719
19:35:27,949; -739
19:35:27,953; -757
19:35:27,957; -704
19:35:27,961; -738
19:35:27,965; -758
19:35:27,969; -738
19:35:27,973; -729
19:35:27,977; -736
19:35:27,980; -777
19:35:27,984; -747
19:35:27,988; -706
19:35:27,992; -578
19:35:27,996; -382
19:35:28,000; 16
19:35:28,004; 704
19:35:28,008; 1188
19:35:28,012; 1611
19:35:28,016; 1890
19:35:28,020; 1899
19:35:28,023; 1536
19:35:28,027; 856
19:35:28,031; 87
19:35:28,035; -512
19:35:28,039; -837
19:35:28,043; -981
19:35:28,047; -921
19:35:28,051; -696
19:35:28,055; -642
19:35:28,059; -593
19:35:28,062; -751
19:35:28,066; -734
19:35:28,070; -746
19:35:28,074; -727
19:35:28,078; -691
19:35:28,082; -776
19:35:28,086; -762
19:35:28,090; -776
19:35:28,094; -723
19:35:28,098; -748
19:35:28,102; -738
19:35:28,105; -734
19:35:28,109; -714
19:35:28,113; -772
19:35:28,117; -712
19:35:28,121; -680
19:35:28,125; -714
19:35:28,129; -715
19:35:28,133; -711
19:35:28,137; -713
19:35:28,141; -725
19:35:28,145; -718
19:35:28,148; -691
19:35:28,152; -648
19:35:28,156; -662
19:35:28,160; -684
19:35:28,164; -673
19:35:28,168; -660
19:35:28,172; -670
19:35:28,176; -644
19:35:28,180; -632
19:35:28,184; -635
19:35:28,187; -619
19:35:28,191; -587
19:35:28,195; -596
19:35:28,199; -589
19:35:28,203; -565
19:35:28,207; -544
19:35:28,211; -537
19:35:28,215; -520
19:35:28,219; -481
19:35:28,223; -475
19:35:28,227; -472
19:35:28,230; -432
19:35:28,234; -428
19:35:28,238; -390
19:35:28,242; -362
19:35:28,246; -354
19:35:28,250; -340
19:35:28,254; -303
19:35:28,258; -302
19:35:28,262; -299
19:35:28,266; -280
19:35:28,270; -268
19:35:28,273; -296
19:35:28,277; -337
19:35:28,281; -359
19:35:28,285; -315
19:35:28,289; -351
19:35:28,293; -400
19:35:28,297; -372
19:35:28,301; -493
19:35:28,305; -534
19:35:28,309; -533
19:35:28,312; -555
19:35:28,316; -534
19:35:28,320; -576
19:35:28,324; -588
19:35:28,328; -633
19:35:28,332; -606
19:35:28,336; -682
19:35:28,340; -629
19:35:28,344; -628
19:35:28,348; -667
19:35:28,352; -681
19:35:28,355; -630
19:35:28,359; -659
19:35:28,363; -643
19:35:28,367; -635
19:35:28,371; -642
19:35:28,375; -679
19:35:28,379; -645
19:35:28,383; -620
19:35:28,387; -621
19:35:28,391; -642
19:35:28,395; -661
19:35:28,398; -608
19:35:28,402; -623
19:35:28,406; -622
19:35:28,410; -590
19:35:28,414; -596
19:35:28,418; -620
19:35:28,422; -652
19:35:28,426; -611
19:35:28,430; -578
19:35:28,434; -654
19:35:28,437; -597
19:35:28,441; -587
19:35:28,445; -662
19:35:28,449; -642
19:35:28,453; -613
19:35:28,457; -647
19:35:28,461; -641
19:35:28,465; -627
19:35:28,469; -658
19:35:28,473; -643
19:35:28,477; -624
19:35:28,480; -619
19:35:28,484; -620
19:35:28,488; -637
19:35:28,492; -611
19:35:28,496; -601
19:35:28,500; -601
19:35:28,504; -564
19:35:28,508; -544
19:35:28,512; -535
19:35:28,516; -527
19:35:28,520; -517
19:35:28,523; -527
19:35:28,527; -518
19:35:28,531; -545
19:35:28,535; -564
19:35:28,539; -549
19:35:28,543; -549
19:35:28,547; -558
19:35:28,551; -582
19:35:28,555; -541
19:35:28,559; -594
19:35:28,562; -593
19:35:28,566; -666
19:35:28,570; -673
19:35:28,574; -703
19:35:28,578; -717
19:35:28,582; -729
19:35:28,586; -693
19:35:28,590; -684
19:35:28,594; -694
19:35:28,598; -689
19:35:28,602; -729
19:35:28,605; -702
19:35:28,609; -718
19:35:28,613; -689
19:35:28,617; -696
19:35:28,621; -688
19:35:28,625; -695
19:35:28,629; -733
19:35:28,633; -716
19:35:28,637; -728
19:35:28,641; -733
19:35:28,645; -693
19:35:28,648; -607
19:35:28,652; -419
19:35:28,656; -122
19:35:28,660; 405
19:35:28,664; 928
19:35:28,668; 1484
19:35:28,672; 1803
19:35:28,676; 1886
19:35:28,680; 1881
19:35:28,684; 1345
19:35:28,688; 641
19:35:28,691; -395
19:35:28,695; -655
19:35:28,699; -907
19:35:28,703; -982
19:35:28,707; -716
19:35:28,711; -567
19:35:28,715; -417
19:35:28,719; -648
19:35:28,723; -809
19:35:28,727; -717
19:35:28,730; -726
19:35:28,734; -641
19:35:28,738; -724
19:35:28,742; -702
19:35:28,746; -748
19:35:28,750; -686
19:35:28,754; -714
19:35:28,758; -686
19:35:28,762; -676
19:35:28,766; -702
19:35:28,770; -659
19:35:28,773; -676
19:35:28,777; -696
19:35:28,781; -688
19:35:28,785; -684
19:35:28,789; -642
19:35:28,793; -669
19:35:28,797; -658
19:35:28,801; -634
19:35:28,805; -667
19:35:28,809; -657
19:35:28,812; -667
19:35:28,816; -649
19:35:28,820; -641
19:35:28,824; -648
19:35:28,828; -597
19:35:28,832; -607
19:35:28,836; -605
19:35:28,840; -568
19:35:28,844; -604
19:35:28,848; -548
19:35:28,852; -567
19:35:28,855; -537
19:35:28,859; -492
19:35:28,863; -492
19:35:28,867; -494
19:35:28,871; -488
19:35:28,875; -434
19:35:28,879; -433
19:35:28,883; -406
19:35:28,887; -367
19:35:28,891; -319
19:35:28,895; -335
19:35:28,898; -317
19:35:28,902; -287
19:35:28,906; -261
19:35:28,910; -256
19:35:28,914; -219
19:35:28,918; -234
19:35:28,922; -230
19:35:28,926; -242
19:35:28,930; -250
19:35:28,934; -247
19:35:28,938; -250
19:35:28,941; -280
19:35:28,945; -321
19:35:28,949; -338
19:35:28,953; -376
19:35:28,957; -430
19:35:28,961; -438
19:35:28,965; -484
19:35:28,969; -507
19:35:28,973; -545
19:35:28,977; -549
19:35:28,980; -555
19:35:28,984; -567
19:35:28,988; -580
19:35:28,992; -588
19:35:28,996; -593
19:35:29,000; -618
19:35:29,004; -639
19:35:29,008; -621
19:35:29,012; -611
19:35:29,016; -630
19:35:29,020; -619
19:35:29,023; -614
19:35:29,027; -615
19:35:29,031; -617
19:35:29,035; -612
19:35:29,039; -604
19:35:29,043; -594
19:35:29,047; -589
19:35:29,051; -587
19:35:29,055; -566
19:35:29,059; -582
19:35:29,062; -587
19:35:29,066; -570
19:35:29,070; -569
19:35:29,074; -582
19:35:29,078; -572
19:35:29,082; -541
19:35:29,086; -560
19:35:29,090; -567
19:35:29,094; -544
19:35:29,098; -564
19:35:29,102; -576
19:35:29,105; -573
19:35:29,109; -575
19:35:29,113; -575
19:35:29,117; -579
19:35:29,121; -579
19:35:29,125; -570
19:35:29,129; -588
19:35:29,133; -598
19:35:29,137; -589
19:35:29,141; -581
19:35:29,145; -620
19:35:29,148; -591
19:35:29,152; -604
19:35:29,156; -620
19:35:29,160; -635
19:35:29,164; -626
19:35:29,168; -602
19:35:29,172; -608
19:35:29,176; -619
19:35:29,180; -610
19:35:29,184; -607
19:35:29,188; -605
19:35:29,191; -583
19:35:29,195; -577
19:35:29,199; -542
19:35:29,203; -540
19:35:29,207; -527
19:35:29,211; -517
19:35:29,215; -530
19:35:29,219; -495
19:35:29,223; -477
19:35:29,227; -479
19:35:29,230; -473
19:35:29,234; -498
19:35:29,238; -471
19:35:29,242; -492
19:35:29,246; -511
19:35:29,250; -523
19:35:29,254; -519
19:35:29,258; -535
19:35:29,262; -562
19:35:29,266; -574
19:35:29,270; -580
19:35:29,273; -601
19:35:29,277; -633
19:35:29,281; -656
19:35:29,285; -644
19:35:29,289; -652
19:35:29,293; -648
19:35:29,297; -665
19:35:29,301; -659
19:35:29,305; -654
19:35:29,309; -650
19:35:29,312; -639
19:35:29,316; -635
19:35:29,320; -655
19:35:29,324; -642
19:35:29,328; -647
19:35:29,332; -654
19:35:29,336; -628
19:35:29,340; -660
19:35:29,344; -676
19:35:29,348; -645
19:35:29,352; -563
19:35:29,355; -401
19:35:29,359; -151
19:35:29,363; 314
19:35:29,367; 886
19:35:29,371; 1479
19:35:29,375; 1842
19:35:29,379; 1981
19:35:29,383; 1900
19:35:29,387; 1361
19:35:29,391; 581
19:35:29,395; -132
19:35:29,398; -682
19:35:29,402; -804
19:35:29,406; -772
19:35:29,410; -676
19:35:29,414; -538
19:35:29,418; -476
19:35:29,422; -506
19:35:29,426; -686
19:35:29,430; -655
19:35:29,434; -622
19:35:29,437; -532
19:35:29,441; -587
19:35:29,445; -600
19:35:29,449; -593
19:35:29,453; -593
19:35:29,457; -579
19:35:29,461; -561
19:35:29,465; -576
19:35:29,469; -575
19:35:29,473; -597
19:35:29,477; -558
19:35:29,480; -558
19:35:29,484; -569
19:35:29,488; -562
19:35:29,492; -555
19:35:29,496; -549
19:35:29,500; -546
19:35:29,504; -542
19:35:29,508; -542
19:35:29,512; -525
19:35:29,516; -527
19:35:29,520; -512
19:35:29,523; -514
19:35:29,527; -509
19:35:29,531; -504
19:35:29,535; -489
19:35:29,539; -476
19:35:29,543; -453
19:35:29,547; -436
19:35:29,551; -420
19:35:29,555; -415
19:35:29,559; -414
19:35:29,562; -406
19:35:29,566; -384
19:35:29,570; -357
19:35:29,574; -325
19:35:29,578; -299
19:35:29,582; -289
19:35:29,586; -268
19:35:29,590; -245
19:35:29,594; -218
19:35:29,598; -187
19:35:29,602; -166
19:35:29,605; -145
19:35:29,609; -133
19:35:29,613; -106
19:35:29,617; -105
19:35:29,621; -99
19:35:29,625; -69
19:35:29,629; -59
19:35:29,633; -59
19:35:29,637; -51
19:35:29,641; -75
19:35:29,645; -96
19:35:29,648; -134
19:35:29,652; -180
19:35:29,656; -209
19:35:29,660; -243
19:35:29,664; -260
19:35:29,668; -282
19:35:29,672; -315
19:35:29,676; -332
19:35:29,680; -373
19:35:29,684; -404
19:35:29,687; -419
19:35:29,691; -443
19:35:29,695; -452
19:35:29,699; -453
19:35:29,703; -465
19:35:29,707; -476
19:35:29,711; -489
19:35:29,715; -499
19:35:29,719; -489
19:35:29,723; -478
19:35:29,727; -476
19:35:29,730; -464
19:35:29,734; -470
19:35:29,738; -463
19:35:29,742; -466
19:35:29,746; -473
19:35:29,750; -471
19:35:29,754; -468
19:35:29,758; -459
19:35:29,762; -444
19:35:29,766; -438
19:35:29,770; -437
19:35:29,773; -424
19:35:29,777; -426
19:35:29,781; -431
19:35:29,785; -420
19:35:29,789; -420
19:35:29,793; -410
19:35:29,797; -412
19:35:29,801; -412
19:35:29,805; -418
19:35:29,809; -425
19:35:29,812; -426
19:35:29,816; -432
19:35:29,820; -435
19:35:29,824; -441
19:35:29,828; -445
19:35:29,832; -450
19:35:29,836; -450
19:35:29,840; -463
19:35:29,844; -472
19:35:29,848; -472
19:35:29,852; -474
19:35:29,855; -483
19:35:29,859; -492
19:35:29,863; -491
19:35:29,867; -488
19:35:29,871; -511
19:35:29,875; -499
19:35:29,879; -493
19:35:29,883; -495
19:35:29,887; -492
19:35:29,891; -502
19:35:29,895; -512
19:35:29,898; -507
19:35:29,902; -518
19:35:29,906; -519
19:35:29,910; -513
19:35:29,914; -525
19:35:29,918; -521
19:35:29,922; -529
19:35:29,926; -523
19:35:29,930; -530
19:35:29,934; -534
19:35:29,937; -539
19:35:29,941; -542
19:35:29,945; -539
19:35:29,949; -529
19:35:29,953; -531
19:35:29,957; -538
19:35:29,961; -538
19:35:29,965; -544
19:35:29,969; -551
19:35:29,973; -546
19:35:29,977; -542
19:35:29,980; -541
19:35:29,984; -546
19:35:29,988; -548
19:35:29,992; -540
19:35:29,996; -549
19:35:30,000; -553
19:35:30,004; -551
19:35:30,008; -552
19:35:30,012; -551
19:35:30,016; -557
19:35:30,020; -553
19:35:30,023; -561
19:35:30,027; -563
19:35:30,031; -564
19:35:30,035; -561
19:35:30,039; -559
19:35:30,043; -550
19:35:30,047; -555
19:35:30,051; -554
19:35:30,055; -562
19:35:30,059; -559
19:35:30,062; -557
19:35:30,066; -554
19:35:30,070; -565
19:35:30,074; -569
19:35:30,078; -572
19:35:30,082; -578
19:35:30,086; -569
19:35:30,090; -571
19:35:30,094; -567
19:35:30,098; -564
19:35:30,102; -568
19:35:30,105; -573
19:35:30,109; -572
19:35:30,113; -567
19:35:30,117; -569
19:35:30,121; -578
19:35:30,125; -571
19:35:30,129; -576
19:35:30,133; -583
19:35:30,137; -576
19:35:30,141; -583
19:35:30,145; -579
19:35:30,148; -589
19:35:30,152; -584
19:35:30,156; -583
19:35:30,160; -587
19:35:30,164; -581
19:35:30,168; -581
19:35:30,172; -592
19:35:30,176; -580
19:35:30,180; -582
19:35:30,184; -592
19:35:30,187; -587
19:35:30,191; -590
19:35:30,195; -591
19:35:30,199; -589
19:35:30,203; -593
19:35:30,207; -598
19:35:30,211; -592
19:35:30,215; -585
19:35:30,219; -598
19:35:30,223; -599
19:35:30,227; -594
19:35:30,230; -595
19:35:30,234; -607
19:35:30,238; -601
19:35:30,242; -600
19:35:30,246; -600
19:35:30,250; -591
19:35:30,254; -591
19:35:30,258; -576
19:35:30,262; -561
19:35:30,266; -541
19:35:30,270; -522
19:35:30,273; -518
19:35:30,277; -499
19:35:30,281; -489
19:35:30,285; -479
19:35:30,289; -459
19:35:30,293; -449
19:35:30,297; -445
19:35:30,301; -441
19:35:30,305; -462
19:35:30,309; -468
19:35:30,312; -488
19:35:30,316; -500
19:35:30,320; -500
19:35:30,324; -507
19:35:30,328; -517
19:35:30,332; -523
19:35:30,336; -542
19:35:30,340; -573
19:35:30,344; -599
19:35:30,348; -625
19:35:30,352; -631
19:35:30,355; -634
19:35:30,359; -637
19:35:30,363; -638
19:35:30,367; -630
19:35:30,371; -632
19:35:30,375; -639
19:35:30,379; -636
19:35:30,383; -640
19:35:30,387; -628
19:35:30,391; -630
19:35:30,395; -637
19:35:30,398; -637
19:35:30,402; -664
19:35:30,406; -658
19:35:30,410; -638
19:35:30,414; -564
19:35:30,418; -399
19:35:30,422; -65
19:35:30,426; 545
19:35:30,430; 993
19:35:30,434; 1690
19:35:30,438; 1911
19:35:30,441; 1996
19:35:30,445; 1730
19:35:30,449; 1199
19:35:30,453; 431
19:35:30,457; -280
19:35:30,461; -673
19:35:30,465; -672
19:35:30,469; -744
19:35:30,473; -669
19:35:30,477; -528
19:35:30,480; -471
19:35:30,484; -667
19:35:30,488; -772
19:35:30,492; -684
19:35:30,496; -669
19:35:30,500; -625
19:35:30,504; -694
19:35:30,508; -685
19:35:30,512; -704
19:35:30,516; -658
19:35:30,520; -638
19:35:30,523; -667
19:35:30,527; -680
19:35:30,531; -690
19:35:30,535; -707
19:35:30,539; -703
19:35:30,543; -679
19:35:30,547; -668
19:35:30,551; -660
19:35:30,555; -639
19:35:30,559; -654
19:35:30,562; -642
19:35:30,566; -629
19:35:30,570; -627
19:35:30,574; -627
19:35:30,578; -656
19:35:30,582; -653
19:35:30,586; -639
19:35:30,590; -620
19:35:30,594; -596
19:35:30,598; -609
19:35:30,602; -609
19:35:30,605; -611
19:35:30,609; -612
19:35:30,613; -593
19:35:30,617; -553
19:35:30,621; -530
19:35:30,625; -518
19:35:30,629; -527
19:35:30,633; -522
19:35:30,637; -485
19:35:30,641; -477
19:35:30,645; -449
19:35:30,648; -427
19:35:30,652; -433
19:35:30,656; -421
19:35:30,660; -409
19:35:30,664; -389
19:35:30,668; -359
19:35:30,672; -325
19:35:30,676; -305
19:35:30,680; -296
19:35:30,684; -289
19:35:30,688; -273
19:35:30,691; -262
19:35:30,695; -245
19:35:30,699; -228
19:35:30,703; -225
19:35:30,707; -216
19:35:30,711; -234
19:35:30,715; -240
19:35:30,719; -270
19:35:30,723; -301
19:35:30,727; -328
19:35:30,730; -357
19:35:30,734; -386
19:35:30,738; -403
19:35:30,742; -445
19:35:30,746; -469
19:35:30,750; -493
19:35:30,754; -531
19:35:30,758; -548
19:35:30,762; -565
19:35:30,766; -590
19:35:30,770; -600
19:35:30,773; -628
19:35:30,777; -632
19:35:30,781; -641
19:35:30,785; -642
19:35:30,789; -645
19:35:30,793; -640
19:35:30,797; -629
19:35:30,801; -628
19:35:30,805; -620
19:35:30,809; -615
19:35:30,812; -617
19:35:30,816; -618
19:35:30,820; -606
19:35:30,824; -622
19:35:30,828; -625
19:35:30,832; -624
19:35:30,836; -631
19:35:30,840; -631
19:35:30,844; -629
19:35:30,848; -624
19:35:30,852; -616
19:35:30,855; -613
19:35:30,859; -624
19:35:30,863; -634
19:35:30,867; -625
19:35:30,871; -638
19:35:30,875; -647
19:35:30,879; -651
19:35:30,883; -650
19:35:30,887; -662
19:35:30,891; -672
19:35:30,895; -674
19:35:30,898; -683
19:35:30,902; -683
19:35:30,906; -697
19:35:30,910; -705
19:35:30,914; -714
19:35:30,918; -708
19:35:30,922; -715
19:35:30,926; -717
19:35:30,930; -716
19:35:30,934; -726
19:35:30,938; -743
19:35:30,941; -747
19:35:30,945; -758
19:35:30,949; -759
19:35:30,953; -757
19:35:30,957; -751
19:35:30,961; -749
19:35:30,965; -765
19:35:30,969; -781
19:35:30,973; -766
19:35:30,977; -788
19:35:30,980; -766
19:35:30,984; -757
19:35:30,988; -762
19:35:30,992; -768
19:35:30,996; -779
19:35:31,000; -791
19:35:31,004; -801
19:35:31,008; -792
19:35:31,012; -784
19:35:31,016; -796
19:35:31,020; -795
19:35:31,023; -797
19:35:31,027; -800
19:35:31,031; -804
19:35:31,035; -802
19:35:31,039; -808
19:35:31,043; -807
19:35:31,047; -811
19:35:31,051; -808
19:35:31,055; -802
19:35:31,059; -806
19:35:31,062; -808
19:35:31,066; -821
19:35:31,070; -835
19:35:31,074; -825
19:35:31,078; -833
19:35:31,082; -827
19:35:31,086; -827
19:35:31,090; -821
19:35:31,094; -829
19:35:31,098; -832
19:35:31,102; -833
19:35:31,105; -822
19:35:31,109; -828
19:35:31,113; -826
19:35:31,117; -825
19:35:31,121; -834
19:35:31,125; -837
19:35:31,129; -834
19:35:31,133; -844
19:35:31,137; -843
19:35:31,141; -842
19:35:31,145; -848
19:35:31,148; -849
19:35:31,152; -860
19:35:31,156; -849
19:35:31,160; -854
19:35:31,164; -849
19:35:31,168; -841
19:35:31,172; -852
19:35:31,176; -851
19:35:31,180; -855
19:35:31,184; -865
19:35:31,187; -863
19:35:31,191; -855
19:35:31,195; -859
19:35:31,199; -852
19:35:31,203; -854
19:35:31,207; -855
19:35:31,211; -860
19:35:31,215; -859
19:35:31,219; -853
19:35:31,223; -847
19:35:31,227; -831
19:35:31,230; -797
19:35:31,234; -791
19:35:31,238; -780
19:35:31,242; -768
19:35:31,246; -758
19:35:31,250; -750
19:35:31,254; -737
19:35:31,258; -720
19:35:31,262; -708
19:35:31,266; -722
19:35:31,270; -736
19:35:31,273; -750
19:35:31,277; -765
19:35:31,281; -778
19:35:31,285; -786
19:35:31,289; -798
19:35:31,293; -787
19:35:31,297; -807
19:35:31,301; -834
19:35:31,305; -851
19:35:31,309; -880
19:35:31,312; -902
19:35:31,316; -916
19:35:31,320; -918
19:35:31,324; -911
19:35:31,328; -906
19:35:31,332; -924
19:35:31,336; -915
19:35:31,340; -920
19:35:31,344; -909
19:35:31,348; -907
19:35:31,352; -901
19:35:31,355; -904
19:35:31,359; -908
19:35:31,363; -942
19:35:31,367; -958
19:35:31,371; -928
19:35:31,375; -880
19:35:31,379; -772
19:35:31,383; -541
19:35:31,387; -57
19:35:31,391; 570
19:35:31,395; 1075
19:35:31,398; 1504
19:35:31,402; 1605
19:35:31,406; 1468
19:35:31,410; 994
19:35:31,414; 240
19:35:31,418; -445
19:35:31,422; -980
19:35:31,426; -1112
19:35:31,430; -1095
19:35:31,434; -1001
19:35:31,437; -854
19:35:31,441; -786
19:35:31,445; -819
19:35:31,449; -1004
19:35:31,453; -974
19:35:31,457; -939
19:35:31,461; -909
19:35:31,465; -900
19:35:31,469; -939
19:35:31,473; -979
19:35:31,477; -955
19:35:31,480; -906
19:35:31,484; -911
19:35:31,488; -954
19:35:31,492; -932
19:35:31,496; -931
19:35:31,500; -933
19:35:31,504; -908
19:35:31,508; -936
19:35:31,512; -920
19:35:31,516; -916
19:35:31,520; -903
19:35:31,523; -904
19:35:31,527; -905
19:35:31,531; -884
19:35:31,535; -883
19:35:31,539; -880
19:35:31,543; -869
19:35:31,547; -858
19:35:31,551; -850
19:35:31,555; -855
19:35:31,559; -846
19:35:31,562; -848
19:35:31,566; -844
19:35:31,570; -842
19:35:31,574; -826
19:35:31,578; -807
19:35:31,582; -786
19:35:31,586; -772
19:35:31,590; -757
19:35:31,594; -740
19:35:31,598; -720
19:35:31,602; -692
19:35:31,605; -668
19:35:31,609; -652
19:35:31,613; -634
19:35:31,617; -609
19:35:31,621; -588
19:35:31,625; -570
19:35:31,629; -542
19:35:31,633; -514
19:35:31,637; -481
19:35:31,641; -473
19:35:31,645; -458
19:35:31,648; -448
19:35:31,652; -436
19:35:31,656; -426
19:35:31,660; -432
19:35:31,664; -415
19:35:31,668; -425
19:35:31,672; -438
19:35:31,676; -460
19:35:31,680; -495
19:35:31,684; -518
19:35:31,687; -558
19:35:31,691; -591
19:35:31,695; -627
19:35:31,699; -657
19:35:31,703; -685
19:35:31,707; -718
19:35:31,711; -753
19:35:31,715; -781
19:35:31,719; -808
19:35:31,723; -834
19:35:31,727; -848
19:35:31,730; -858
19:35:31,734; -871
19:35:31,738; -886
19:35:31,742; -901
19:35:31,746; -902
19:35:31,750; -894
19:35:31,754; -899
19:35:31,758; -890
19:35:31,762; -878
19:35:31,766; -889
19:35:31,770; -879
19:35:31,773; -880
19:35:31,777; -877
19:35:31,781; -874
19:35:31,785; -869
19:35:31,789; -873
19:35:31,793; -870
19:35:31,797; -872
19:35:31,801; -865
19:35:31,805; -870
19:35:31,809; -856
19:35:31,812; -853
19:35:31,816; -858
19:35:31,820; -855
19:35:31,824; -848
19:35:31,828; -872
19:35:31,832; -862
19:35:31,836; -848
19:35:31,840; -855
19:35:31,844; -859
19:35:31,848; -863
19:35:31,852; -884
19:35:31,855; -900
19:35:31,859; -905
19:35:31,863; -918
19:35:31,867; -903
19:35:31,871; -905
19:35:31,875; -906
19:35:31,879; -911
19:35:31,883; -923
19:35:31,887; -921
19:35:31,891; -941
19:35:31,895; -949
19:35:31,898; -936
19:35:31,902; -952
19:35:31,906; -945
19:35:31,910; -951
19:35:31,914; -950
19:35:31,918; -950
19:35:31,922; -962
19:35:31,926; -953
19:35:31,930; -973
19:35:31,934; -973
19:35:31,938; -960
19:35:31,941; -964
19:35:31,945; -964
19:35:31,949; -951
19:35:31,953; -963
19:35:31,957; -970
19:35:31,961; -978
19:35:31,965; -983
19:35:31,969; -985
19:35:31,973; -987
19:35:31,977; -977
19:35:31,980; -973
19:35:31,984; -971
19:35:31,988; -985
19:35:31,992; -981
19:35:31,996; -994
19:35:32,000; -997
19:35:32,004; -1001
19:35:32,008; -982
19:35:32,012; -975
19:35:32,016; -972
19:35:32,020; -969
19:35:32,023; -978
19:35:32,027; -983
19:35:32,031; -989
19:35:32,035; -998
19:35:32,039; -1004
19:35:32,043; -994
19:35:32,047; -994
19:35:32,051; -994
19:35:32,055; -994
19:35:32,059; -999
19:35:32,062; -1011
19:35:32,066; -1008
19:35:32,070; -999
19:35:32,074; -982
19:35:32,078; -969
19:35:32,082; -984
19:35:32,086; -979
19:35:32,090; -1003
19:35:32,094; -1014
19:35:32,098; -1004
19:35:32,102; -993
19:35:32,105; -988
19:35:32,109; -990
19:35:32,113; -995
19:35:32,117; -1001
19:35:32,121; -1007
19:35:32,125; -995
19:35:32,129; -994
19:35:32,133; -1001
19:35:32,137; -993
19:35:32,141; -1011
19:35:32,145; -1000
19:35:32,148; -1005
19:35:32,152; -987
19:35:32,156; -993
19:35:32,160; -1000
19:35:32,164; -980
19:35:32,168; -991
19:35:32,172; -979
19:35:32,176; -940
19:35:32,180; -923
19:35:32,184; -916
19:35:32,188; -890
19:35:32,191; -878
19:35:32,195; -851
19:35:32,199; -835
19:35:32,203; -830
19:35:32,207; -824
19:35:32,211; -836
19:35:32,215; -855
19:35:32,219; -866
19:35:32,223; -872
19:35:32,227; -883
19:35:32,230; -905
19:35:32,234; -909
19:35:32,238; -906
19:35:32,242; -927
19:35:32,246; -939
19:35:32,250; -962
19:35:32,254; -972
19:35:32,258; -989
19:35:32,262; -1006
19:35:32,266; -1008
19:35:32,270; -1009
19:35:32,273; -997
19:35:32,277; -1007
19:35:32,281; -1004
19:35:32,285; -1004
19:35:32,289; -987
19:35:32,293; -979
19:35:32,297; -986
19:35:32,301; -968
19:35:32,305; -980
19:35:32,309; -997
19:35:32,312; -1018
19:35:32,316; -988
19:35:32,320; -935
19:35:32,324; -787
19:35:32,328; -449
19:35:32,332; 174
19:35:32,336; 628
19:35:32,340; 1170
19:35:32,344; 1538
19:35:32,348; 1564
19:35:32,352; 1417
19:35:32,355; 813
19:35:32,359; 115
19:35:32,363; -617
19:35:32,367; -1060
19:35:32,371; -1221
19:35:32,375; -1251
19:35:32,379; -1073
19:35:32,383; -874
19:35:32,387; -804
19:35:32,391; -918
19:35:32,395; -987
19:35:32,398; -931
19:35:32,402; -958
19:35:32,406; -916
19:35:32,410; -960
19:35:32,414; -986
19:35:32,418; -960
19:35:32,422; -949
19:35:32,426; -931
19:35:32,430; -938
19:35:32,434; -938
19:35:32,438; -926
19:35:32,441; -932
19:35:32,445; -925
19:35:32,449; -923
19:35:32,453; -897
19:35:32,457; -929
19:35:32,461; -910
19:35:32,465; -915
19:35:32,469; -918
19:35:32,473; -909
19:35:32,477; -889
19:35:32,480; -886
19:35:32,484; -876
19:35:32,488; -855
19:35:32,492; -863
19:35:32,496; -839
19:35:32,500; -866
19:35:32,504; -855
19:35:32,508; -838
19:35:32,512; -818
19:35:32,516; -825
19:35:32,520; -787
19:35:32,523; -774
19:35:32,527; -750
19:35:32,531; -745
19:35:32,535; -732
19:35:32,539; -709
19:35:32,543; -688
19:35:32,547; -689
19:35:32,551; -651
19:35:32,555; -620
19:35:32,559; -588
19:35:32,562; -588
19:35:32,566; -592
19:35:32,570; -530
19:35:32,574; -502
19:35:32,578; -479
19:35:32,582; -442
19:35:32,586; -412
19:35:32,590; -397
19:35:32,594; -378
19:35:32,598; -382
19:35:32,602; -374
19:35:32,605; -345
19:35:32,609; -350
19:35:32,613; -376
19:35:32,617; -384
19:35:32,621; -395
19:35:32,625; -427
19:35:32,629; -468
19:35:32,633; -509
19:35:32,637; -505
19:35:32,641; -548
19:35:32,645; -583
19:35:32,648; -617
19:35:32,652; -655
19:35:32,656; -701
19:35:32,660; -711
19:35:32,664; -734
19:35:32,668; -774
19:35:32,672; -768
19:35:32,676; -764
19:35:32,680; -798
19:35:32,684; -797
19:35:32,687; -782
19:35:32,691; -794
19:35:32,695; -808
19:35:32,699; -803
19:35:32,703; -788
19:35:32,707; -774
19:35:32,711; -777
19:35:32,715; -781
19:35:32,719; -813
19:35:32,723; -802
19:35:32,727; -784
19:35:32,730; -779
19:35:32,734; -777
19:35:32,738; -780
19:35:32,742; -760
19:35:32,746; -783
19:35:32,750; -761
19:35:32,754; -718
19:35:32,758; -728
19:35:32,762; -731
19:35:32,766; -760
19:35:32,770; -754
19:35:32,773; -764
19:35:32,777; -768
19:35:32,781; -766
19:35:32,785; -772
19:35:32,789; -770
19:35:32,793; -778
19:35:32,797; -768
19:35:32,801; -743
19:35:32,805; -748
19:35:32,809; -766
19:35:32,812; -757
19:35:32,816; -760
19:35:32,820; -760
19:35:32,824; -784
19:35:32,828; -758
19:35:32,832; -765
19:35:32,836; -790
19:35:32,840; -767
19:35:32,844; -768
19:35:32,848; -772
19:35:32,852; -794
19:35:32,855; -774
19:35:32,859; -746
19:35:32,863; -757
19:35:32,867; -737
19:35:32,871; -705
19:35:32,875; -706
19:35:32,879; -720
19:35:32,883; -706
19:35:32,887; -698
19:35:32,891; -664
19:35:32,895; -670
19:35:32,898; -645
19:35:32,902; -660
19:35:32,906; -655
19:35:32,910; -662
19:35:32,914; -675
19:35:32,918; -683
19:35:32,922; -671
19:35:32,926; -684
19:35:32,930; -696
19:35:32,934; -697
19:35:32,937; -712
19:35:32,941; -742
19:35:32,945; -789
19:35:32,949; -826
19:35:32,953; -801
19:35:32,957; -817
19:35:32,961; -819
19:35:32,965; -783
19:35:32,969; -773
19:35:32,973; -810
19:35:32,977; -831
19:35:32,980; -820
19:35:32,984; -789
19:35:32,988; -757
19:35:32,992; -783
19:35:32,996; -777
19:35:33,000; -799
19:35:33,004; -796
19:35:33,008; -823
19:35:33,012; -795
19:35:33,016; -790
19:35:33,020; -741
19:35:33,023; -673
19:35:33,027; -504
19:35:33,031; -102
19:35:33,035; 765
19:35:33,039; 1171
19:35:33,043; 1755
19:35:33,047; 1856
19:35:33,051; 1658
19:35:33,055; 995
19:35:33,059; 203
19:35:33,062; -555
19:35:33,066; -789
19:35:33,070; -1076
19:35:33,074; -912
19:35:33,078; -786
19:35:33,082; -604
19:35:33,086; -613
19:35:33,090; -691
19:35:33,094; -790
19:35:33,098; -774
19:35:33,102; -735
19:35:33,105; -739
19:35:33,109; -683
19:35:33,113; -726
19:35:33,117; -716
19:35:33,121; -746
19:35:33,125; -712
19:35:33,129; -726
19:35:33,133; -676
19:35:33,137; -733
19:35:33,141; -706
19:35:33,145; -671
19:35:33,148; -691
19:35:33,152; -691
19:35:33,156; -691
19:35:33,160; -687
19:35:33,164; -706
19:35:33,168; -659
19:35:33,172; -629
19:35:33,176; -633
19:35:33,180; -648
19:35:33,184; -624
19:35:33,187; -613
19:35:33,191; -621
19:35:33,195; -611
19:35:33,199; -599
19:35:33,203; -585
19:35:33,207; -600
19:35:33,211; -558
19:35:33,215; -566
19:35:33,219; -544
19:35:33,223; -502
19:35:33,227; -480
19:35:33,230; -481
19:35:33,234; -470
19:35:33,238; -431
19:35:33,242; -392
19:35:33,246; -409
19:35:33,250; -328
19:35:33,254; -321
19:35:33,258; -352
19:35:33,262; -277
19:35:33,266; -273
19:35:33,270; -241
19:35:33,273; -171
19:35:33,277; -116
19:35:33,281; -101
19:35:33,285; -107
19:35:33,289; -101
19:35:33,293; -86
19:35:33,297; -96
19:35:33,301; -64
19:35:33,305; -78
19:35:33,309; -100
19:35:33,312; -140
19:35:33,316; -165
19:35:33,320; -226
19:35:33,324; -261
19:35:33,328; -321
19:35:33,332; -340
19:35:33,336; -399
19:35:33,340; -407
19:35:33,344; -444
19:35:33,348; -509
19:35:33,352; -497
19:35:33,355; -542
19:35:33,359; -552
19:35:33,363; -585
19:35:33,367; -570
19:35:33,371; -592
19:35:33,375; -594
19:35:33,379; -618
19:35:33,383; -620
19:35:33,387; -589
19:35:33,391; -607
19:35:33,395; -597
19:35:33,398; -578
19:35:33,402; -602
19:35:33,406; -598
19:35:33,410; -619
19:35:33,414; -612
19:35:33,418; -569
19:35:33,422; -547
19:35:33,426; -547
19:35:33,430; -536
19:35:33,434; -552
19:35:33,438; -590
19:35:33,441; -595
19:35:33,445; -557
19:35:33,449; -556
19:35:33,453; -540
19:35:33,457; -527
19:35:33,461; -517
19:35:33,465; -540
19:35:33,469; -529
19:35:33,473; -532
19:35:33,477; -538
19:35:33,480; -524
19:35:33,484; -548
19:35:33,488; -521
19:35:33,492; -514
19:35:33,496; -547
19:35:33,500; -554
19:35:33,504; -564
19:35:33,508; -551
19:35:33,512; -571
19:35:33,516; -532
19:35:33,520; -516
19:35:33,523; -512
19:35:33,527; -482
19:35:33,531; -480
19:35:33,535; -486
19:35:33,539; -445
19:35:33,543; -438
19:35:33,547; -418
19:35:33,551; -417
19:35:33,555; -414
19:35:33,559; -422
19:35:33,562; -440
19:35:33,566; -471
19:35:33,570; -448
19:35:33,574; -459
19:35:33,578; -446
19:35:33,582; -461
19:35:33,586; -463
19:35:33,590; -482
19:35:33,594; -488
19:35:33,598; -510
19:35:33,602; -563
19:35:33,605; -564
19:35:33,609; -610
19:35:33,613; -620
19:35:33,617; -617
19:35:33,621; -607
19:35:33,625; -588
19:35:33,629; -600
19:35:33,633; -611
19:35:33,637; -612
19:35:33,641; -607
19:35:33,645; -613
19:35:33,648; -607
19:35:33,652; -609
19:35:33,656; -609
19:35:33,660; -595
19:35:33,664; -598
19:35:33,668; -627
19:35:33,672; -599
19:35:33,676; -548
19:35:33,680; -449
19:35:33,684; -209
19:35:33,688; 328
19:35:33,691; 882
19:35:33,695; 1348
19:35:33,699; 1845
19:35:33,703; 1896
19:35:33,707; 1894
19:35:33,711; 1610
19:35:33,715; 930
19:35:33,719; 123
19:35:33,723; -512
19:35:33,727; -684
19:35:33,730; -889
19:35:33,734; -771
19:35:33,738; -465
19:35:33,742; -407
19:35:33,746; -392
19:35:33,750; -586
19:35:33,754; -553
19:35:33,758; -546
19:35:33,762; -523
19:35:33,766; -571
19:35:33,770; -594
19:35:33,773; -668
19:35:33,777; -611
19:35:33,781; -555
19:35:33,785; -527
19:35:33,789; -559
19:35:33,793; -576
19:35:33,797; -556
19:35:33,801; -581
19:35:33,805; -535
19:35:33,809; -526
19:35:33,812; -528
19:35:33,816; -502
19:35:33,820; -516
19:35:33,824; -496
19:35:33,828; -512
19:35:33,832; -509
19:35:33,836; -520
19:35:33,840; -516
19:35:33,844; -503
19:35:33,848; -496
19:35:33,852; -487
19:35:33,855; -456
19:35:33,859; -454
19:35:33,863; -473
19:35:33,867; -465
19:35:33,871; -456
19:35:33,875; -419
19:35:33,879; -395
19:35:33,883; -392
19:35:33,887; -345
19:35:33,891; -334
19:35:33,895; -313
19:35:33,898; -312
19:35:33,902; -270
19:35:33,906; -252
19:35:33,910; -232
19:35:33,914; -221
19:35:33,918; -170
19:35:33,922; -145
19:35:33,926; -106
19:35:33,930; -92
19:35:33,934; -56
19:35:33,938; -28
19:35:33,941; -29
19:35:33,945; -1
19:35:33,949; 6
19:35:33,953; 10
19:35:33,957; 19
19:35:33,961; 3
19:35:33,965; -2
19:35:33,969; -19
19:35:33,973; -51
19:35:33,977; -104
19:35:33,980; -144
19:35:33,984; -216
19:35:33,988; -219
19:35:33,992; -269
19:35:33,996; -295
19:35:34,000; -330
19:35:34,004; -352
19:35:34,008; -375
19:35:34,012; -407
19:35:34,016; -435
19:35:34,020; -450
19:35:34,023; -448
19:35:34,027; -456
19:35:34,031; -461
19:35:34,035; -480
19:35:34,039; -480
19:35:34,043; -473
19:35:34,047; -501
19:35:34,051; -507
19:35:34,055; -500
19:35:34,059; -481
19:35:34,062; -481
19:35:34,066; -481
19:35:34,070; -475
19:35:34,074; -461
19:35:34,078; -473
19:35:34,082; -480
19:35:34,086; -468
19:35:34,090; -464
19:35:34,094; -453
19:35:34,098; -441
19:35:34,102; -432
19:35:34,105; -418
19:35:34,109; -413
19:35:34,113; -416
19:35:34,117; -417
19:35:34,121; -410
19:35:34,125; -400
19:35:34,129; -421
19:35:34,133; -413
19:35:34,137; -398
19:35:34,141; -396
19:35:34,145; -407
19:35:34,148; -403
19:35:34,152; -393
19:35:34,156; -417
19:35:34,160; -416
19:35:34,164; -423
19:35:34,168; -424
19:35:34,172; -431
19:35:34,176; -421
19:35:34,180; -423
19:35:34,184; -424
19:35:34,187; -420
19:35:34,191; -436
19:35:34,195; -448
19:35:34,199; -449
19:35:34,203; -452
19:35:34,207; -443
19:35:34,211; -444
19:35:34,215; -431
19:35:34,219; -449
19:35:34,223; -450
19:35:34,227; -447
19:35:34,230; -453
19:35:34,234; -463
19:35:34,238; -464
19:35:34,242; -472
19:35:34,246; -464
19:35:34,250; -470
19:35:34,254; -462
19:35:34,258; -458
19:35:34,262; -462
19:35:34,266; -461
19:35:34,270; -460
19:35:34,273; -454
19:35:34,277; -460
19:35:34,281; -468
19:35:34,285; -475
19:35:34,289; -479
19:35:34,293; -473
19:35:34,297; -473
19:35:34,301; -473
19:35:34,305; -474
19:35:34,309; -495
19:35:34,312; -481
19:35:34,316; -480
19:35:34,320; -484
19:35:34,324; -467
19:35:34,328; -458
19:35:34,332; -469
19:35:34,336; -487
19:35:34,340; -476
19:35:34,344; -472
19:35:34,348; -482
19:35:34,352; -476
19:35:34,355; -470
19:35:34,359; -470
19:35:34,363; -469
19:35:34,367; -468
19:35:34,371; -473
19:35:34,375; -468
19:35:34,379; -480
19:35:34,383; -472
19:35:34,387; -464
19:35:34,391; -465
19:35:34,395; -465
19:35:34,398; -458
19:35:34,402; -468
19:35:34,406; -460
19:35:34,410; -459
19:35:34,414; -473
19:35:34,418; -455
19:35:34,422; -457
19:35:34,426; -464
19:35:34,430; -448
19:35:34,434; -453
19:35:34,437; -442
19:35:34,441; -455
19:35:34,445; -462
19:35:34,449; -462
19:35:34,453; -461
19:35:34,457; -455
19:35:34,461; -449
19:35:34,465; -449
19:35:34,469; -447
19:35:34,473; -442
19:35:34,477; -448
19:35:34,480; -448
19:35:34,484; -437
19:35:34,488; -449
19:35:34,492; -438
19:35:34,496; -453
19:35:34,500; -440
19:35:34,504; -451
19:35:34,508; -450
19:35:34,512; -438
19:35:34,516; -435
19:35:34,520; -424
19:35:34,523; -411
19:35:34,527; -405
19:35:34,531; -378
19:35:34,535; -360
19:35:34,539; -339
19:35:34,543; -308
19:35:34,547; -316
19:35:34,551; -296
19:35:34,555; -294
19:35:34,559; -302
19:35:34,562; -319
19:35:34,566; -325
19:35:34,570; -342
19:35:34,574; -344
19:35:34,578; -355
19:35:34,582; -356
19:35:34,586; -338
19:35:34,590; -363
19:35:34,594; -393
19:35:34,598; -416
19:35:34,602; -444
19:35:34,605; -458
19:35:34,609; -454
19:35:34,613; -450
19:35:34,617; -445
19:35:34,621; -446
19:35:34,625; -443
19:35:34,629; -440
19:35:34,633; -457
19:35:34,637; -438
19:35:34,641; -437
19:35:34,645; -436
19:35:34,648; -431
19:35:34,652; -445
19:35:34,656; -475
19:35:34,660; -443
19:35:34,664; -386
19:35:34,668; -219
19:35:34,672; 32
19:35:34,676; 496
19:35:34,680; 1051
19:35:34,684; 1600
19:35:34,687; 2036
19:35:34,691; 2132
19:35:34,695; 2095
19:35:34,699; 1737
19:35:34,703; 1001
19:35:34,707; 297
19:35:34,711; -392
19:35:34,715; -488
19:35:34,719; -649
19:35:34,723; -586
19:35:34,727; -365
19:35:34,730; -311
19:35:34,734; -379
19:35:34,738; -430
19:35:34,742; -526
19:35:34,746; -445
19:35:34,750; -430
19:35:34,754; -390
19:35:34,758; -454
19:35:34,762; -446
19:35:34,766; -463
19:35:34,770; -421
19:35:34,773; -438
19:35:34,777; -428
19:35:34,781; -454
19:35:34,785; -436
19:35:34,789; -420
19:35:34,793; -407
19:35:34,797; -416
19:35:34,801; -420
19:35:34,805; -396
19:35:34,809; -413
19:35:34,812; -402
19:35:34,816; -378
19:35:34,820; -383
19:35:34,824; -354
19:35:34,828; -362
19:35:34,832; -360
19:35:34,836; -360
19:35:34,840; -359
19:35:34,844; -343
19:35:34,848; -343
19:35:34,852; -326
19:35:34,855; -316
19:35:34,859; -309
19:35:34,863; -296
19:35:34,867; -282
19:35:34,871; -279
19:35:34,875; -270
19:35:34,879; -255
19:35:34,883; -239
19:35:34,887; -212
19:35:34,891; -192
19:35:34,895; -164
19:35:34,898; -146
19:35:34,902; -115
19:35:34,906; -108
19:35:34,910; -78
19:35:34,914; -55
19:35:34,918; -24
19:35:34,922; -17
19:35:34,926; 22
19:35:34,930; 39
19:35:34,934; 64
19:35:34,937; 77
19:35:34,941; 98
19:35:34,945; 117
19:35:34,949; 126
19:35:34,953; 122
19:35:34,957; 131
19:35:34,961; 138
19:35:34,965; 110
19:35:34,969; 95
19:35:34,973; 75
19:35:34,977; 35
19:35:34,980; 0
19:35:34,984; -47
19:35:34,988; -67
19:35:34,992; -106
19:35:34,996; -136
19:35:35,000; -153
19:35:35,004; -193
19:35:35,008; -210
19:35:35,012; -222
19:35:35,016; -254
19:35:35,020; -273
19:35:35,023; -284
19:35:35,027; -293
19:35:35,031; -313
19:35:35,035; -312
19:35:35,039; -307
19:35:35,043; -317
19:35:35,047; -302
19:35:35,051; -311
19:35:35,055; -307
19:35:35,059; -292
19:35:35,062; -291
19:35:35,066; -279
19:35:35,070; -290
19:35:35,074; -275
19:35:35,078; -278
19:35:35,082; -275
19:35:35,086; -267
19:35:35,090; -265
19:35:35,094; -265
19:35:35,098; -259
19:35:35,102; -254
19:35:35,105; -249
19:35:35,109; -257
19:35:35,113; -250
19:35:35,117; -250
19:35:35,121; -260
19:35:35,125; -260
19:35:35,129; -256
19:35:35,133; -254
19:35:35,137; -255
19:35:35,141; -268
19:35:35,145; -268
19:35:35,148; -282
19:35:35,152; -283
19:35:35,156; -286
19:35:35,160; -304
19:35:35,164; -303
19:35:35,168; -296
19:35:35,172; -310
19:35:35,176; -310
19:35:35,180; -314
19:35:35,184; -321
19:35:35,188; -324
19:35:35,191; -327
19:35:35,195; -332
19:35:35,199; -327
19:35:35,203; -333
19:35:35,207; -338
19:35:35,211; -335
19:35:35,215; -347
19:35:35,219; -345
19:35:35,223; -350
19:35:35,227; -348
19:35:35,230; -350
19:35:35,234; -364
19:35:35,238; -353
19:35:35,242; -355
19:35:35,246; -358
19:35:35,250; -353
19:35:35,254; -357
19:35:35,258; -352
19:35:35,262; -352
19:35:35,266; -361
19:35:35,270; -354
19:35:35,273; -355
19:35:35,277; -367
19:35:35,281; -358
19:35:35,285; -364
19:35:35,289; -363
19:35:35,293; -359
19:35:35,297; -371
19:35:35,301; -365
19:35:35,305; -372
19:35:35,309; -370
19:35:35,312; -372
19:35:35,316; -370
19:35:35,320; -373
19:35:35,324; -379
19:35:35,328; -373
19:35:35,332; -371
19:35:35,336; -374
19:35:35,340; -371
19:35:35,344; -365
19:35:35,348; -370
19:35:35,352; -371
19:35:35,355; -364
19:35:35,359; -375
19:35:35,363; -365
19:35:35,367; -366
19:35:35,371; -377
19:35:35,375; -372
19:35:35,379; -365
19:35:35,383; -366
19:35:35,387; -364
19:35:35,391; -367
19:35:35,395; -371
19:35:35,398; -366
19:35:35,402; -377
19:35:35,406; -363
19:35:35,410; -364
19:35:35,414; -374
19:35:35,418; -362
19:35:35,422; -373
19:35:35,426; -377
19:35:35,430; -373
19:35:35,434; -372
19:35:35,438; -367
19:35:35,441; -372
19:35:35,445; -363
19:35:35,449; -363
19:35:35,453; -363
19:35:35,457; -363
19:35:35,461; -370
19:35:35,465; -357
19:35:35,469; -368
19:35:35,473; -365
19:35:35,477; -362
19:35:35,480; -363
19:35:35,484; -360
19:35:35,488; -363
19:35:35,492; -350
19:35:35,496; -342
19:35:35,500; -331
19:35:35,504; -318
19:35:35,508; -292
19:35:35,512; -273
19:35:35,516; -260
19:35:35,520; -243
19:35:35,523; -237
19:35:35,527; -221
19:35:35,531; -215
19:35:35,535; -226
19:35:35,539; -226
19:35:35,543; -241
19:35:35,547; -266
19:35:35,551; -281
19:35:35,555; -280
19:35:35,559; -280
19:35:35,562; -277
19:35:35,566; -267
19:35:35,570; -298
19:35:35,574; -315
19:35:35,578; -337
19:35:35,582; -360
19:35:35,586; -373
19:35:35,590; -369
19:35:35,594; -365
19:35:35,598; -354
19:35:35,602; -363
19:35:35,605; -356
19:35:35,609; -353
19:35:35,613; -354
19:35:35,617; -356
19:35:35,621; -353
19:35:35,625; -361
19:35:35,629; -366
19:35:35,633; -376
19:35:35,637; -394
19:35:35,641; -345
19:35:35,645; -269
19:35:35,648; -100
19:35:35,652; 233
19:35:35,656; 818
19:35:35,660; 1239
19:35:35,664; 1859
19:35:35,668; 2167
19:35:35,672; 2230
19:35:35,676; 1932
19:35:35,680; 1403
19:35:35,684; 683
19:35:35,688; -42
19:35:35,691; -423
19:35:35,695; -519
19:35:35,699; -409
19:35:35,703; -399
19:35:35,707; -192
19:35:35,711; -220
19:35:35,715; -330
19:35:35,719; -352
19:35:35,723; -396
19:35:35,727; -313
19:35:35,730; -323
19:35:35,734; -305
19:35:35,738; -359
19:35:35,742; -337
19:35:35,746; -347
19:35:35,750; -315
19:35:35,754; -338
19:35:35,758; -357
19:35:35,762; -346
19:35:35,766; -339
19:35:35,770; -326
19:35:35,773; -329
19:35:35,777; -330
19:35:35,781; -308
19:35:35,785; -314
19:35:35,789; -304
19:35:35,793; -299
19:35:35,797; -297
19:35:35,801; -296
19:35:35,805; -292
19:35:35,809; -282
19:35:35,812; -262
19:35:35,816; -256
19:35:35,820; -255
19:35:35,824; -240
19:35:35,828; -241
19:35:35,832; -234
19:35:35,836; -226
19:35:35,840; -212
19:35:35,844; -195
19:35:35,848; -185
19:35:35,852; -175
19:35:35,855; -154
19:35:35,859; -145
19:35:35,863; -126
19:35:35,867; -103
19:35:35,871; -85
19:35:35,875; -60
19:35:35,879; -31
19:35:35,883; -3
19:35:35,887; 23
19:35:35,891; 43
19:35:35,895; 69
19:35:35,898; 97
19:35:35,902; 123
19:35:35,906; 141
19:35:35,910; 163
19:35:35,914; 188
19:35:35,918; 201
19:35:35,922; 211
19:35:35,926; 215
19:35:35,930; 227
19:35:35,934; 219
19:35:35,937; 214
19:35:35,941; 203
19:35:35,945; 186
19:35:35,949; 161
19:35:35,953; 118
19:35:35,957; 86
19:35:35,961; 40
19:35:35,965; 17
19:35:35,969; -39
19:35:35,973; -61
19:35:35,977; -90
19:35:35,980; -119
19:35:35,984; -149
19:35:35,988; -164
19:35:35,992; -186
19:35:35,996; -207
19:35:36,000; -231
19:35:36,004; -235
19:35:36,008; -247
19:35:36,012; -247
19:35:36,016; -248
19:35:36,020; -254
19:35:36,023; -251
19:35:36,027; -265
19:35:36,031; -254
19:35:36,035; -256
19:35:36,039; -255
19:35:36,043; -245
19:35:36,047; -240
19:35:36,051; -234
19:35:36,055; -225
19:35:36,059; -219
19:35:36,062; -213
19:35:36,066; -210
19:35:36,070; -211
19:35:36,074; -204
19:35:36,078; -209
19:35:36,082; -203
19:35:36,086; -199
19:35:36,090; -203
19:35:36,094; -203
19:35:36,098; -199
19:35:36,102; -201
19:35:36,105; -197
19:35:36,109; -205
19:35:36,113; -207
19:35:36,117; -208
19:35:36,121; -213
19:35:36,125; -222
19:35:36,129; -225
19:35:36,133; -228
19:35:36,137; -225
19:35:36,141; -238
19:35:36,145; -241
19:35:36,148; -243
19:35:36,152; -240
19:35:36,156; -252
19:35:36,160; -259
19:35:36,164; -253
19:35:36,168; -255
19:35:36,172; -268
19:35:36,176; -259
19:35:36,180; -272
19:35:36,184; -279
19:35:36,187; -277
19:35:36,191; -277
19:35:36,195; -279
19:35:36,199; -273
19:35:36,203; -272
19:35:36,207; -278
19:35:36,211; -281
19:35:36,215; -284
19:35:36,219; -292
19:35:36,223; -291
19:35:36,227; -292
19:35:36,230; -291
19:35:36,234; -291
19:35:36,238; -285
19:35:36,242; -293
19:35:36,246; -294
19:35:36,250; -301
19:35:36,254; -294
19:35:36,258; -304
19:35:36,262; -297
19:35:36,266; -297
19:35:36,270; -302
19:35:36,273; -298
19:35:36,277; -300
19:35:36,281; -303
19:35:36,285; -299
19:35:36,289; -302
19:35:36,293; -302
19:35:36,297; -305
19:35:36,301; -296
19:35:36,305; -290
19:35:36,309; -297
19:35:36,312; -302
19:35:36,316; -301
19:35:36,320; -304
19:35:36,324; -304
19:35:36,328; -306
19:35:36,332; -301
19:35:36,336; -298
19:35:36,340; -303
19:35:36,344; -307
19:35:36,348; -304
19:35:36,352; -300
19:35:36,355; -297
19:35:36,359; -303
19:35:36,363; -308
19:35:36,367; -303
19:35:36,371; -296
19:35:36,375; -309
19:35:36,379; -309
19:35:36,383; -302
19:35:36,387; -303
19:35:36,391; -301
19:35:36,395; -307
19:35:36,398; -296
19:35:36,402; -298
19:35:36,406; -310
19:35:36,410; -297
19:35:36,414; -304
19:35:36,418; -295
19:35:36,422; -308
19:35:36,426; -306
19:35:36,430; -303
19:35:36,434; -311
19:35:36,437; -301
19:35:36,441; -286
19:35:36,445; -272
19:35:36,449; -257
19:35:36,453; -233
19:35:36,457; -217
19:35:36,461; -209
19:35:36,465; -186
19:35:36,469; -173
19:35:36,473; -163
19:35:36,477; -154
19:35:36,480; -137
19:35:36,484; -143
19:35:36,488; -156
19:35:36,492; -172
19:35:36,496; -194
19:35:36,500; -197
19:35:36,504; -203
19:35:36,508; -210
19:35:36,512; -207
19:35:36,516; -214
19:35:36,520; -232
19:35:36,523; -257
19:35:36,527; -285
19:35:36,531; -297
19:35:36,535; -309
19:35:36,539; -319
19:35:36,543; -307
19:35:36,547; -310
19:35:36,551; -305
19:35:36,555; -310
19:35:36,559; -308
19:35:36,562; -309
19:35:36,566; -302
19:35:36,570; -311
19:35:36,574; -306
19:35:36,578; -307
19:35:36,582; -313
19:35:36,586; -338
19:35:36,590; -340
19:35:36,594; -302
19:35:36,598; -234
19:35:36,602; -73
19:35:36,605; 293
19:35:36,609; 874
19:35:36,613; 1310
19:35:36,617; 1953
19:35:36,621; 2143
19:35:36,625; 2206
19:35:36,629; 1965
19:35:36,633; 1306
19:35:36,637; 677
19:35:36,641; -127
19:35:36,645; -376
19:35:36,648; -520
19:35:36,652; -509
19:35:36,656; -311
19:35:36,660; -240
19:35:36,664; -166
19:35:36,668; -318
19:35:36,672; -316
19:35:36,676; -339
19:35:36,680; -241
19:35:36,684; -274
19:35:36,688; -263
19:35:36,691; -320
19:35:36,695; -334
19:35:36,699; -292
19:35:36,703; -281
19:35:36,707; -311
19:35:36,711; -284
19:35:36,715; -296
19:35:36,719; -307
19:35:36,723; -298
19:35:36,727; -297
19:35:36,730; -287
19:35:36,734; -286
19:35:36,738; -267
19:35:36,742; -264
19:35:36,746; -249
19:35:36,750; -256
19:35:36,754; -261
19:35:36,758; -237
19:35:36,762; -235
19:35:36,766; -229
19:35:36,770; -225
19:35:36,773; -214
19:35:36,777; -209
19:35:36,781; -209
19:35:36,785; -196
19:35:36,789; -185
19:35:36,793; -165
19:35:36,797; -157
19:35:36,801; -145
19:35:36,805; -136
19:35:36,809; -120
19:35:36,812; -98
19:35:36,816; -78
19:35:36,820; -58
19:35:36,824; -28
19:35:36,828; -7
19:35:36,832; 14
19:35:36,836; 50
19:35:36,840; 73
19:35:36,844; 98
19:35:36,848; 133
19:35:36,852; 154
19:35:36,855; 184
19:35:36,859; 198
19:35:36,863; 227
19:35:36,867; 244
19:35:36,871; 261
19:35:36,875; 274
19:35:36,879; 288
19:35:36,883; 291
19:35:36,887; 305
19:35:36,891; 296
19:35:36,895; 276
19:35:36,898; 243
19:35:36,902; 218
19:35:36,906; 174
19:35:36,910; 121
19:35:36,914; 71
19:35:36,918; 47
19:35:36,922; 5
19:35:36,926; -30
19:35:36,930; -59
19:35:36,934; -87
19:35:36,938; -111
19:35:36,941; -139
19:35:36,945; -157
19:35:36,949; -170
19:35:36,953; -184
19:35:36,957; -193
19:35:36,961; -210
19:35:36,965; -210
19:35:36,969; -221
19:35:36,973; -225
19:35:36,977; -229
19:35:36,980; -220
19:35:36,984; -224
19:35:36,988; -223
19:35:36,992; -209
19:35:36,996; -203
19:35:37,000; -202
19:35:37,004; -199
19:35:37,008; -193
19:35:37,012; -172
19:35:37,016; -188
19:35:37,020; -178
19:35:37,023; -173
19:35:37,027; -180
19:35:37,031; -178
19:35:37,035; -178
19:35:37,039; -174
19:35:37,043; -164
19:35:37,047; -169
19:35:37,051; -160
19:35:37,055; -161
19:35:37,059; -163
19:35:37,062; -172
19:35:37,066; -178
19:35:37,070; -174
19:35:37,074; -173
19:35:37,078; -178
19:35:37,082; -186
19:35:37,086; -191
19:35:37,090; -206
19:35:37,094; -221
19:35:37,098; -220
19:35:37,102; -219
19:35:37,105; -212
19:35:37,109; -228
19:35:37,113; -223
19:35:37,117; -231
19:35:37,121; -230
19:35:37,125; -232
19:35:37,129; -234
19:35:37,133; -238
19:35:37,137; -243
19:35:37,141; -260
19:35:37,145; -246
19:35:37,148; -256
19:35:37,152; -253
19:35:37,156; -257
19:35:37,160; -258
19:35:37,164; -265
19:35:37,168; -260
19:35:37,172; -262
19:35:37,176; -255
19:35:37,180; -254
19:35:37,184; -257
19:35:37,188; -264
19:35:37,191; -273
19:35:37,195; -271
19:35:37,199; -273
19:35:37,203; -275
19:35:37,207; -280
19:35:37,211; -279
19:35:37,215; -279
19:35:37,219; -293
19:35:37,223; -290
19:35:37,227; -293
19:35:37,230; -292
19:35:37,234; -300
19:35:37,238; -304
19:35:37,242; -303
19:35:37,246; -296
19:35:37,250; -292
19:35:37,254; -293
19:35:37,258; -286
19:35:37,262; -293
19:35:37,266; -296
19:35:37,270; -293
19:35:37,273; -304
19:35:37,277; -297
19:35:37,281; -296
19:35:37,285; -306
19:35:37,289; -308
19:35:37,293; -309
19:35:37,297; -312
19:35:37,301; -306
19:35:37,305; -310
19:35:37,309; -303
19:35:37,312; -299
19:35:37,316; -308
19:35:37,320; -312
19:35:37,324; -300
19:35:37,328; -312
19:35:37,332; -304
19:35:37,336; -311
19:35:37,340; -313
19:35:37,344; -320
19:35:37,348; -319
19:35:37,352; -323
19:35:37,355; -322
19:35:37,359; -318
19:35:37,363; -312
19:35:37,367; -309
19:35:37,371; -300
19:35:37,375; -281
19:35:37,379; -269
19:35:37,383; -257
19:35:37,387; -230
19:35:37,391; -239
19:35:37,395; -225
19:35:37,398; -197
19:35:37,402; -183
19:35:37,406; -176
19:35:37,410; -164
19:35:37,414; -151
19:35:37,418; -162
19:35:37,422; -191
19:35:37,426; -199
19:35:37,430; -212
19:35:37,434; -219
19:35:37,437; -224
19:35:37,441; -240
19:35:37,445; -221
19:35:37,449; -230
19:35:37,453; -260
19:35:37,457; -284
19:35:37,461; -315
19:35:37,465; -324
19:35:37,469; -344
19:35:37,473; -331
19:35:37,477; -333
19:35:37,480; -314
19:35:37,484; -325
19:35:37,488; -329
19:35:37,492; -337
19:35:37,496; -330
19:35:37,500; -317
19:35:37,504; -317
19:35:37,508; -326
19:35:37,512; -319
19:35:37,516; -340
19:35:37,520; -362
19:35:37,523; -333
19:35:37,527; -262
19:35:37,531; -101
19:35:37,535; 158
19:35:37,539; 666
19:35:37,543; 1171
19:35:37,547; 1704
19:35:37,551; 2023
19:35:37,555; 2222
19:35:37,559; 2121
19:35:37,562; 1703
19:35:37,566; 1096
19:35:37,570; 213
19:35:37,574; -217
19:35:37,578; -579
19:35:37,582; -492
19:35:37,586; -407
19:35:37,590; -277
19:35:37,594; -195
19:35:37,598; -202
19:35:37,602; -422
19:35:37,605; -392
19:35:37,609; -275
19:35:37,613; -253
19:35:37,617; -280
19:35:37,621; -291
19:35:37,625; -372
19:35:37,629; -326
19:35:37,633; -324
19:35:37,637; -284
19:35:37,641; -326
19:35:37,645; -318
19:35:37,648; -303
19:35:37,652; -308
19:35:37,656; -278
19:35:37,660; -297
19:35:37,664; -267
19:35:37,668; -287
19:35:37,672; -284
19:35:37,676; -264
19:35:37,680; -263
19:35:37,684; -249
19:35:37,687; -256
19:35:37,691; -248
19:35:37,695; -225
19:35:37,699; -220
19:35:37,703; -221
19:35:37,707; -208
19:35:37,711; -203
19:35:37,715; -211
19:35:37,719; -207
19:35:37,723; -196
19:35:37,727; -178
19:35:37,730; -151
19:35:37,734; -134
19:35:37,738; -128
19:35:37,742; -122
19:35:37,746; -102
19:35:37,750; -78
19:35:37,754; -48
19:35:37,758; -17
19:35:37,762; 28
19:35:37,766; 44
19:35:37,770; 66
19:35:37,773; 89
19:35:37,777; 105
19:35:37,781; 147
19:35:37,785; 161
19:35:37,789; 198
19:35:37,793; 223
19:35:37,797; 233
19:35:37,801; 261
19:35:37,805; 287
19:35:37,809; 301
19:35:37,812; 335
19:35:37,816; 340
19:35:37,820; 308
19:35:37,824; 311
19:35:37,828; 292
19:35:37,832; 252
19:35:37,836; 229
19:35:37,840; 191
19:35:37,844; 143
19:35:37,848; 94
19:35:37,852; 38
19:35:37,855; 19
19:35:37,859; -29
19:35:37,863; -50
19:35:37,867; -93
19:35:37,871; -125
19:35:37,875; -155
19:35:37,879; -159
19:35:37,883; -173
19:35:37,887; -177
19:35:37,891; -178
19:35:37,895; -186
19:35:37,898; -187
19:35:37,902; -202
19:35:37,906; -198
19:35:37,910; -210
19:35:37,914; -218
19:35:37,918; -200
19:35:37,922; -214
19:35:37,926; -206
19:35:37,930; -218
19:35:37,934; -213
19:35:37,937; -203
19:35:37,941; -200
19:35:37,945; -180
19:35:37,949; -171
19:35:37,953; -170
19:35:37,957; -172
19:35:37,961; -178
19:35:37,965; -174
19:35:37,969; -172
19:35:37,973; -170
19:35:37,977; -174
19:35:37,980; -165
19:35:37,984; -165
19:35:37,988; -164
19:35:37,992; -156
19:35:37,996; -170
19:35:38,000; -178
19:35:38,004; -189
19:35:38,008; -192
19:35:38,012; -191
19:35:38,016; -188
19:35:38,020; -207
19:35:38,023; -196
19:35:38,027; -213
19:35:38,031; -219
19:35:38,035; -216
19:35:38,039; -228
19:35:38,043; -230
19:35:38,047; -223
19:35:38,051; -240
19:35:38,055; -226
19:35:38,059; -241
19:35:38,062; -248
19:35:38,066; -251
19:35:38,070; -258
19:35:38,074; -253
19:35:38,078; -259
19:35:38,082; -242
19:35:38,086; -248
19:35:38,090; -258
19:35:38,094; -238
19:35:38,098; -226
19:35:38,102; -226
19:35:38,105; -199
19:35:38,109; -185
19:35:38,113; -168
19:35:38,117; -149
19:35:38,121; -153
19:35:38,125; -153
19:35:38,129; -132
19:35:38,133; -139
19:35:38,137; -137
19:35:38,141; -143
19:35:38,145; -138
19:35:38,148; -150
19:35:38,152; -163
19:35:38,156; -179
19:35:38,160; -185
19:35:38,164; -200
19:35:38,168; -217
19:35:38,172; -247
19:35:38,176; -281
19:35:38,180; -289
19:35:38,184; -293
19:35:38,187; -299
19:35:38,191; -316
19:35:38,195; -338
19:35:38,199; -324
19:35:38,203; -328
19:35:38,207; -336
19:35:38,211; -328
19:35:38,215; -304
19:35:38,219; -300
19:35:38,223; -308
19:35:38,227; -329
19:35:38,230; -313
19:35:38,234; -308
19:35:38,238; -336
19:35:38,242; -347
19:35:38,246; -311
19:35:38,250; -235
19:35:38,254; -100
19:35:38,258; 115
19:35:38,262; 538
19:35:38,266; 1179
19:35:38,270; 1645
19:35:38,273; 2049
19:35:38,277; 2297
19:35:38,281; 2166
19:35:38,285; 1735
19:35:38,289; 1001
19:35:38,293; 299
19:35:38,297; -258
19:35:38,301; -540
19:35:38,305; -492
19:35:38,309; -431
19:35:38,312; -213
19:35:38,316; -157
19:35:38,320; -224
19:35:38,324; -275
19:35:38,328; -372
19:35:38,332; -291
19:35:38,336; -276
19:35:38,340; -236
19:35:38,344; -300
19:35:38,348; -292
19:35:38,352; -309
19:35:38,355; -305
19:35:38,359; -318
19:35:38,363; -319
19:35:38,367; -296
19:35:38,371; -283
19:35:38,375; -292
19:35:38,379; -256
19:35:38,383; -265
19:35:38,387; -297
19:35:38,391; -285
19:35:38,395; -250
19:35:38,398; -252
19:35:38,402; -254
19:35:38,406; -229
19:35:38,410; -243
19:35:38,414; -259
19:35:38,418; -219
19:35:38,422; -233
19:35:38,426; -232
19:35:38,430; -225
19:35:38,434; -200
19:35:38,438; -210
19:35:38,441; -174
19:35:38,445; -148
19:35:38,449; -133
19:35:38,453; -159
19:35:38,457; -160
19:35:38,461; -131
19:35:38,465; -106
19:35:38,469; -83
19:35:38,473; -56
19:35:38,477; -3
19:35:38,480; -11
19:35:38,484; -2
19:35:38,488; 19
19:35:38,492; 52
19:35:38,496; 111
19:35:38,500; 154
19:35:38,504; 161
19:35:38,508; 203
19:35:38,512; 205
19:35:38,516; 220
19:35:38,520; 241
19:35:38,523; 290
19:35:38,527; 287
19:35:38,531; 305
19:35:38,535; 319
19:35:38,539; 277
19:35:38,543; 284
19:35:38,547; 236
19:35:38,551; 208
19:35:38,555; 163
19:35:38,559; 91
19:35:38,562; 80
19:35:38,566; 52
19:35:38,570; 1
19:35:38,574; -17
19:35:38,578; -71
19:35:38,582; -101
19:35:38,586; -144
19:35:38,590; -188
19:35:38,594; -178
19:35:38,598; -202
19:35:38,602; -212
19:35:38,605; -217
19:35:38,609; -259
19:35:38,613; -248
19:35:38,617; -230
19:35:38,621; -236
19:35:38,625; -248
19:35:38,629; -246
19:35:38,633; -249
19:35:38,637; -248
19:35:38,641; -265
19:35:38,645; -257
19:35:38,648; -254
19:35:38,652; -252
19:35:38,656; -238
19:35:38,660; -232
19:35:38,664; -221
19:35:38,668; -199
19:35:38,672; -205
19:35:38,676; -236
19:35:38,680; -252
19:35:38,684; -213
19:35:38,688; -183
19:35:38,691; -212
19:35:38,695; -159
19:35:38,699; -177
19:35:38,703; -224
19:35:38,707; -232
19:35:38,711; -241
19:35:38,715; -217
19:35:38,719; -200
19:35:38,723; -199
19:35:38,727; -208
19:35:38,730; -194
19:35:38,734; -215
19:35:38,738; -244
19:35:38,742; -248
19:35:38,746; -247
19:35:38,750; -250
19:35:38,754; -227
19:35:38,758; -226
19:35:38,762; -192
19:35:38,766; -194
19:35:38,770; -196
19:35:38,773; -203
19:35:38,777; -177
19:35:38,781; -134
19:35:38,785; -171
19:35:38,789; -117
19:35:38,793; -97
19:35:38,797; -118
19:35:38,801; -105
19:35:38,805; -133
19:35:38,809; -140
19:35:38,812; -118
19:35:38,816; -164
19:35:38,820; -171
19:35:38,824; -171
19:35:38,828; -163
19:35:38,832; -208
19:35:38,836; -211
19:35:38,840; -230
19:35:38,844; -255
19:35:38,848; -291
19:35:38,852; -306
19:35:38,855; -313
19:35:38,859; -319
19:35:38,863; -300
19:35:38,867; -302
19:35:38,871; -295
19:35:38,875; -315
19:35:38,879; -324
19:35:38,883; -309
19:35:38,887; -310
19:35:38,891; -330
19:35:38,895; -304
19:35:38,898; -313
19:35:38,902; -314
19:35:38,906; -290
19:35:38,910; -313
19:35:38,914; -318
19:35:38,918; -274
19:35:38,922; -199
19:35:38,926; 16
19:35:38,930; 385
19:35:38,934; 945
19:35:38,937; 1492
19:35:38,941; 1928
19:35:38,945; 2248
19:35:38,949; 2186
19:35:38,953; 2167
19:35:38,957; 1449
19:35:38,961; 633
19:35:38,965; 18
19:35:38,969; -335
19:35:38,973; -698
19:35:38,977; -466
19:35:38,980; -282
19:35:38,984; -203
19:35:38,988; -97
19:35:38,992; -254
19:35:38,996; -361
19:35:39,000; -295
19:35:39,004; -312
19:35:39,008; -252
19:35:39,012; -310
19:35:39,016; -351
19:35:39,020; -378
19:35:39,023; -301
19:35:39,027; -298
19:35:39,031; -306
19:35:39,035; -255
19:35:39,039; -309
19:35:39,043; -301
19:35:39,047; -310
19:35:39,051; -302
19:35:39,055; -273
19:35:39,059; -268
19:35:39,062; -295
19:35:39,066; -276
19:35:39,070; -305
19:35:39,074; -293
19:35:39,078; -260
19:35:39,082; -250
19:35:39,086; -255
19:35:39,090; -239
19:35:39,094; -266
19:35:39,098; -273
19:35:39,102; -217
19:35:39,105; -191
19:35:39,109; -221
19:35:39,113; -195
19:35:39,117; -175
19:35:39,121; -184
19:35:39,125; -199
19:35:39,129; -177
19:35:39,133; -134
19:35:39,137; -97
19:35:39,141; -87
19:35:39,145; -48
19:35:39,148; -11
19:35:39,152; -1
19:35:39,156; -19
19:35:39,160; 35
19:35:39,164; 59
19:35:39,168; 99
19:35:39,172; 151
19:35:39,176; 162
19:35:39,180; 173
19:35:39,184; 178
19:35:39,187; 206
19:35:39,191; 233
19:35:39,195; 255
19:35:39,199; 251
19:35:39,203; 234
19:35:39,207; 244
19:35:39,211; 183
19:35:39,215; 167
19:35:39,219; 160
19:35:39,223; 116
19:35:39,227; 57
19:35:39,230; 20
19:35:39,234; -38
19:35:39,238; -77
19:35:39,242; -71
19:35:39,246; -117
19:35:39,250; -175
19:35:39,254; -188
19:35:39,258; -198
19:35:39,262; -220
19:35:39,266; -270
19:35:39,270; -275
19:35:39,273; -244
19:35:39,277; -279
19:35:39,281; -300
19:35:39,285; -290
19:35:39,289; -292
19:35:39,293; -294
19:35:39,297; -335
19:35:39,301; -300
19:35:39,305; -310
19:35:39,309; -280
19:35:39,312; -264
19:35:39,316; -299
19:35:39,320; -297
19:35:39,324; -275
19:35:39,328; -304
19:35:39,332; -312
19:35:39,336; -308
19:35:39,340; -297
19:35:39,344; -300
19:35:39,348; -306
19:35:39,352; -279
19:35:39,355; -264
19:35:39,359; -268
19:35:39,363; -245
19:35:39,367; -254
19:35:39,371; -268
19:35:39,375; -274
19:35:39,379; -302
19:35:39,383; -303
19:35:39,387; -292
19:35:39,391; -308
19:35:39,395; -275
19:35:39,398; -273
19:35:39,402; -293
19:35:39,406; -301
19:35:39,410; -323
19:35:39,414; -323
19:35:39,418; -298
19:35:39,422; -330
19:35:39,426; -329
19:35:39,430; -304
19:35:39,434; -336
19:35:39,437; -352
19:35:39,441; -345
19:35:39,445; -324
19:35:39,449; -330
19:35:39,453; -354
19:35:39,457; -347
19:35:39,461; -339
19:35:39,465; -354
19:35:39,469; -359
19:35:39,473; -364
19:35:39,477; -390
19:35:39,480; -356
19:35:39,484; -352
19:35:39,488; -363
19:35:39,492; -335
19:35:39,496; -320
19:35:39,500; -327
19:35:39,504; -301
19:35:39,508; -259
19:35:39,512; -252
19:35:39,516; -258
19:35:39,520; -255
19:35:39,523; -281
19:35:39,527; -264
19:35:39,531; -294
19:35:39,535; -279
19:35:39,539; -284
19:35:39,543; -287
19:35:39,547; -309
19:35:39,551; -319
19:35:39,555; -289
19:35:39,559; -316
19:35:39,562; -352
19:35:39,566; -367
19:35:39,570; -413
19:35:39,574; -428
19:35:39,578; -453
19:35:39,582; -440
19:35:39,586; -454
19:35:39,590; -464
19:35:39,594; -446
19:35:39,598; -450
19:35:39,602; -447
19:35:39,605; -446
19:35:39,609; -453
19:35:39,613; -449
19:35:39,617; -458
19:35:39,621; -442
19:35:39,625; -445
19:35:39,629; -457
19:35:39,633; -471
19:35:39,637; -472
19:35:39,641; -472
19:35:39,645; -432
19:35:39,648; -306
19:35:39,652; -44
19:35:39,656; 488
19:35:39,660; 1025
19:35:39,664; 1485
19:35:39,668; 1990
19:35:39,672; 2159
19:35:39,676; 2043
19:35:39,680; 1706
19:35:39,684; 1031
19:35:39,687; 349
19:35:39,691; -368
19:35:39,695; -642
19:35:39,699; -649
19:35:39,703; -624
19:35:39,707; -390
19:35:39,711; -303
19:35:39,715; -362
19:35:39,719; -513
19:35:39,723; -538
19:35:39,727; -556
19:35:39,730; -457
19:35:39,734; -475
19:35:39,738; -472
19:35:39,742; -529
19:35:39,746; -499
19:35:39,750; -503
19:35:39,754; -508
19:35:39,758; -499
19:35:39,762; -505
19:35:39,766; -495
19:35:39,770; -491
19:35:39,773; -486
19:35:39,777; -480
19:35:39,781; -507
19:35:39,785; -501
19:35:39,789; -473
19:35:39,793; -447
19:35:39,797; -473
19:35:39,801; -458
19:35:39,805; -451
19:35:39,809; -486
19:35:39,812; -491
19:35:39,816; -459
19:35:39,820; -452
19:35:39,824; -431
19:35:39,828; -407
19:35:39,832; -419
19:35:39,836; -401
19:35:39,840; -411
19:35:39,844; -412
19:35:39,848; -378
19:35:39,852; -368
19:35:39,855; -359
19:35:39,859; -337
19:35:39,863; -337
19:35:39,867; -308
19:35:39,871; -283
19:35:39,875; -251
19:35:39,879; -224
19:35:39,883; -200
19:35:39,887; -170
19:35:39,891; -156
19:35:39,895; -148
19:35:39,898; -134
19:35:39,902; -110
19:35:39,906; -63
19:35:39,910; -22
19:35:39,914; -22
19:35:39,918; 14
19:35:39,922; 14
19:35:39,926; 21
19:35:39,930; -3
19:35:39,934; 4
19:35:39,938; -21
19:35:39,941; -53
19:35:39,945; -89
19:35:39,949; -143
19:35:39,953; -183
19:35:39,957; -209
19:35:39,961; -250
19:35:39,965; -294
19:35:39,969; -345
19:35:39,973; -358
19:35:39,977; -379
19:35:39,980; -402
19:35:39,984; -420
19:35:39,988; -447
19:35:39,992; -462
19:35:39,996; -490
19:35:40,000; -513
19:35:40,004; -522
19:35:40,008; -509
19:35:40,012; -528
19:35:40,016; -516
19:35:40,020; -534
19:35:40,023; -527
19:35:40,027; -538
19:35:40,031; -531
19:35:40,035; -521
19:35:40,039; -531
19:35:40,043; -531
19:35:40,047; -519
19:35:40,051; -519
19:35:40,055; -519
19:35:40,059; -522
19:35:40,062; -508
19:35:40,066; -522
19:35:40,070; -503
19:35:40,074; -497
19:35:40,078; -495
19:35:40,082; -491
19:35:40,086; -500
19:35:40,090; -506
19:35:40,094; -502
19:35:40,098; -502
19:35:40,102; -495
19:35:40,105; -492
19:35:40,109; -498
19:35:40,113; -511
19:35:40,117; -509
19:35:40,121; -506
19:35:40,125; -515
19:35:40,129; -516
19:35:40,133; -529
19:35:40,137; -516
19:35:40,141; -545
19:35:40,145; -541
19:35:40,148; -547
19:35:40,152; -545
19:35:40,156; -551
19:35:40,160; -559
19:35:40,164; -557
19:35:40,168; -573
19:35:40,172; -590
19:35:40,176; -600
19:35:40,180; -614
19:35:40,184; -617
19:35:40,188; -607
19:35:40,191; -593
19:35:40,195; -614
19:35:40,199; -598
19:35:40,203; -609
19:35:40,207; -610
19:35:40,211; -621
19:35:40,215; -630
19:35:40,219; -617
19:35:40,223; -625
19:35:40,227; -641
19:35:40,230; -632
19:35:40,234; -644
19:35:40,238; -639
19:35:40,242; -640
19:35:40,246; -640
19:35:40,250; -651
19:35:40,254; -652
19:35:40,258; -670
19:35:40,262; -670
19:35:40,266; -674
19:35:40,270; -687
19:35:40,273; -678
19:35:40,277; -675
19:35:40,281; -669
19:35:40,285; -676
19:35:40,289; -675
19:35:40,293; -666
19:35:40,297; -686
19:35:40,301; -687
19:35:40,305; -691
19:35:40,309; -702
19:35:40,312; -709
19:35:40,316; -705
19:35:40,320; -708
19:35:40,324; -707
19:35:40,328; -708
19:35:40,332; -708
19:35:40,336; -721
19:35:40,340; -723
19:35:40,344; -731
19:35:40,348; -724
19:35:40,352; -737
19:35:40,355; -740
19:35:40,359; -745
19:35:40,363; -735
19:35:40,367; -734
19:35:40,371; -742
19:35:40,375; -748
19:35:40,379; -758
19:35:40,383; -763
19:35:40,387; -759
19:35:40,391; -746
19:35:40,395; -739
19:35:40,398; -735
19:35:40,402; -749
19:35:40,406; -748
19:35:40,410; -768
19:35:40,414; -767
19:35:40,418; -767
19:35:40,422; -771
19:35:40,426; -770
19:35:40,430; -789
19:35:40,434; -789
19:35:40,438; -789
19:35:40,441; -786
19:35:40,445; -786
19:35:40,449; -782
19:35:40,453; -777
19:35:40,457; -780
19:35:40,461; -787
19:35:40,465; -789
19:35:40,469; -804
19:35:40,473; -803
19:35:40,477; -798
19:35:40,480; -803
19:35:40,484; -802
19:35:40,488; -798
19:35:40,492; -807
19:35:40,496; -815
19:35:40,500; -815
19:35:40,504; -813
19:35:40,508; -813
19:35:40,512; -816
19:35:40,516; -812
19:35:40,520; -809
19:35:40,523; -826
19:35:40,527; -820
19:35:40,531; -825
19:35:40,535; -826
19:35:40,539; -833
19:35:40,543; -836
19:35:40,547; -849
19:35:40,551; -845
19:35:40,555; -844
19:35:40,559; -833
19:35:40,562; -830
19:35:40,566; -841
19:35:40,570; -838
19:35:40,574; -845
19:35:40,578; -864
19:35:40,582; -868
19:35:40,586; -862
19:35:40,590; -857
19:35:40,594; -857
19:35:40,598; -850
19:35:40,602; -847
19:35:40,605; -857
19:35:40,609; -869
19:35:40,613; -880
19:35:40,617; -860
19:35:40,621; -865
19:35:40,625; -843
19:35:40,629; -819
19:35:40,633; -811
19:35:40,637; -814
19:35:40,641; -789
19:35:40,645; -779
19:35:40,648; -778
19:35:40,652; -764
19:35:40,656; -755
19:35:40,660; -762
19:35:40,664; -778
19:35:40,668; -786
19:35:40,672; -799
19:35:40,676; -813
19:35:40,680; -821
19:35:40,684; -820
19:35:40,687; -829
19:35:40,691; -830
19:35:40,695; -840
19:35:40,699; -862
19:35:40,703; -899
19:35:40,707; -920
19:35:40,711; -953
19:35:40,715; -943
19:35:40,719; -960
19:35:40,723; -957
19:35:40,727; -948
19:35:40,730; -946
19:35:40,734; -944
19:35:40,738; -955
19:35:40,742; -958
19:35:40,746; -956
19:35:40,750; -961
19:35:40,754; -978
19:35:40,758; -980
19:35:40,762; -992
19:35:40,766; -982
19:35:40,770; -958
19:35:40,773; -897
19:35:40,777; -768
19:35:40,781; -495
19:35:40,785; 11
19:35:40,789; 655
19:35:40,793; 1178
19:35:40,797; 1457
19:35:40,801; 1699
19:35:40,805; 1497
19:35:40,809; 919
19:35:40,812; 142
19:35:40,816; -410
19:35:40,820; -1071
19:35:40,824; -1190
19:35:40,828; -1109
19:35:40,832; -1123
19:35:40,836; -854
19:35:40,840; -860
19:35:40,844; -888
19:35:40,848; -1036
19:35:40,852; -1060
19:35:40,855; -957
19:35:40,859; -987
19:35:40,863; -977
19:35:40,867; -1036
19:35:40,871; -1051
19:35:40,875; -1009
19:35:40,879; -996
19:35:40,883; -1027
19:35:40,887; -1000
19:35:40,891; -1012
19:35:40,895; -1023
19:35:40,898; -1013
19:35:40,902; -1013
19:35:40,906; -1003
19:35:40,910; -1003
19:35:40,914; -1000
19:35:40,918; -995
19:35:40,922; -1000
19:35:40,926; -1011
19:35:40,930; -994
19:35:40,934; -984
19:35:40,937; -992
19:35:40,941; -980
19:35:40,945; -978
19:35:40,949; -970
19:35:40,953; -976
19:35:40,957; -963
19:35:40,961; -956
19:35:40,965; -946
19:35:40,969; -938
19:35:40,973; -931
19:35:40,977; -914
19:35:40,980; -902
19:35:40,984; -892
19:35:40,988; -877
19:35:40,992; -860
19:35:40,996; -845
19:35:41,000; -833
19:35:41,004; -815
19:35:41,008; -791
19:35:41,012; -766
19:35:41,016; -745
19:35:41,020; -715
19:35:41,023; -686
19:35:41,027; -669
19:35:41,031; -653
19:35:41,035; -637
19:35:41,039; -609
19:35:41,043; -587
19:35:41,047; -577
19:35:41,051; -548
19:35:41,055; -545
19:35:41,059; -541
19:35:41,062; -526
19:35:41,066; -524
19:35:41,070; -515
19:35:41,074; -518
19:35:41,078; -533
19:35:41,082; -563
19:35:41,086; -592
19:35:41,090; -622
19:35:41,094; -657
19:35:41,098; -696
19:35:41,102; -737
19:35:41,105; -766
19:35:41,109; -818
19:35:41,113; -835
19:35:41,117; -860
19:35:41,121; -886
19:35:41,125; -913
19:35:41,129; -924
19:35:41,133; -946
19:35:41,137; -954
19:35:41,141; -965
19:35:41,145; -975
19:35:41,148; -984
19:35:41,152; -994
19:35:41,156; -1001
19:35:41,160; -1003
19:35:41,164; -1004
19:35:41,168; -1000
19:35:41,172; -999
19:35:41,176; -998
19:35:41,180; -995
19:35:41,184; -989
19:35:41,187; -978
19:35:41,191; -980
19:35:41,195; -976
19:35:41,199; -970
19:35:41,203; -973
19:35:41,207; -969
19:35:41,211; -968
19:35:41,215; -963
19:35:41,219; -963
19:35:41,223; -957
19:35:41,227; -958
19:35:41,230; -957
19:35:41,234; -970
19:35:41,238; -971
19:35:41,242; -980
19:35:41,246; -985
19:35:41,250; -984
19:35:41,254; -984
19:35:41,258; -996
19:35:41,262; -995
19:35:41,266; -1004
19:35:41,270; -1011
19:35:41,273; -1018
19:35:41,277; -1024
19:35:41,281; -1024
19:35:41,285; -1026
19:35:41,289; -1036
19:35:41,293; -1036
19:35:41,297; -1045
19:35:41,301; -1052
19:35:41,305; -1055
19:35:41,309; -1060
19:35:41,312; -1066
19:35:41,316; -1065
19:35:41,320; -1072
19:35:41,324; -1071
19:35:41,328; -1077
19:35:41,332; -1075
19:35:41,336; -1081
19:35:41,340; -1086
19:35:41,344; -1091
19:35:41,348; -1094
19:35:41,352; -1100
19:35:41,355; -1098
19:35:41,359; -1098
19:35:41,363; -1095
19:35:41,367; -1096
19:35:41,371; -1099
19:35:41,375; -1104
19:35:41,379; -1100
19:35:41,383; -1105
19:35:41,387; -1108
19:35:41,391; -1103
19:35:41,395; -1110
19:35:41,398; -1113
19:35:41,402; -1115
19:35:41,406; -1117
19:35:41,410; -1116
19:35:41,414; -1114
19:35:41,418; -1114
19:35:41,422; -1124
19:35:41,426; -1122
19:35:41,430; -1123
19:35:41,434; -1126
19:35:41,438; -1123
19:35:41,441; -1124
19:35:41,445; -1127
19:35:41,449; -1127
19:35:41,453; -1132
19:35:41,457; -1131
19:35:41,461; -1125
19:35:41,465; -1121
19:35:41,469; -1126
19:35:41,473; -1129
19:35:41,477; -1127
19:35:41,480; -1128
19:35:41,484; -1130
19:35:41,488; -1130
19:35:41,492; -1128
19:35:41,496; -1125
19:35:41,500; -1128
19:35:41,504; -1126
19:35:41,508; -1128
19:35:41,512; -1129
19:35:41,516; -1132
19:35:41,520; -1132
19:35:41,523; -1127
19:35:41,527; -1129
19:35:41,531; -1131
19:35:41,535; -1125
19:35:41,539; -1130
19:35:41,543; -1128
19:35:41,547; -1130
19:35:41,551; -1122
19:35:41,555; -1125
19:35:41,559; -1131
19:35:41,562; -1132
19:35:41,566; -1132
19:35:41,570; -1127
19:35:41,574; -1121
19:35:41,578; -1127
19:35:41,582; -1121
19:35:41,586; -1123
19:35:41,590; -1121
19:35:41,594; -1126
19:35:41,598; -1119
19:35:41,602; -1117
19:35:41,605; -1123
19:35:41,609; -1129
19:35:41,613; -1126
19:35:41,617; -1129
19:35:41,621; -1129
19:35:41,625; -1126
19:35:41,629; -1122
19:35:41,633; -1123
19:35:41,637; -1123
19:35:41,641; -1127
19:35:41,645; -1119
19:35:41,648; -1118
19:35:41,652; -1113
19:35:41,656; -1112
19:35:41,660; -1109
19:35:41,664; -1106
19:35:41,668; -1108
19:35:41,672; -1115
19:35:41,676; -1106
19:35:41,680; -1094
19:35:41,684; -1083
19:35:41,688; -1055
19:35:41,691; -1018
19:35:41,695; -1014
19:35:41,699; -999
19:35:41,703; -988
19:35:41,707; -974
19:35:41,711; -964
19:35:41,715; -961
19:35:41,719; -948
19:35:41,723; -945
19:35:41,727; -963
19:35:41,730; -974
19:35:41,734; -993
19:35:41,738; -1000
19:35:41,742; -1004
19:35:41,746; -1019
19:35:41,750; -1018
19:35:41,754; -1008
19:35:41,758; -1034
19:35:41,762; -1052
19:35:41,766; -1081
19:35:41,770; -1093
19:35:41,773; -1107
19:35:41,777; -1113
19:35:41,781; -1102
19:35:41,785; -1101
19:35:41,789; -1094
19:35:41,793; -1103
19:35:41,797; -1101
19:35:41,801; -1099
19:35:41,805; -1097
19:35:41,809; -1100
19:35:41,812; -1100
19:35:41,816; -1100
19:35:41,820; -1113
19:35:41,824; -1129
19:35:41,828; -1108
19:35:41,832; -1072
19:35:41,836; -988
19:35:41,840; -801
19:35:41,844; -400
19:35:41,848; 233
19:35:41,852; 709
19:35:41,855; 1272
19:35:41,859; 1501
19:35:41,863; 1406
19:35:41,867; 1118
19:35:41,871; 467
19:35:41,875; -278
19:35:41,879; -1005
19:35:41,883; -1089
19:35:41,887; -1274
19:35:41,891; -1223
19:35:41,895; -985
19:35:41,898; -916
19:35:41,902; -983
19:35:41,906; -1041
19:35:41,910; -1153
19:35:41,914; -1141
19:35:41,918; -1044
19:35:41,922; -1028
19:35:41,926; -1097
19:35:41,930; -1069
19:35:41,934; -1079
19:35:41,938; -1039
19:35:41,941; -1068
19:35:41,945; -1058
19:35:41,949; -1081
19:35:41,953; -1057
19:35:41,957; -1068
19:35:41,961; -1054
19:35:41,965; -1049
19:35:41,969; -1061
19:35:41,973; -1044
19:35:41,977; -1035
19:35:41,980; -1030
19:35:41,984; -1023
19:35:41,988; -1013
19:35:41,992; -1016
19:35:41,996; -1008
19:35:42,000; -997
19:35:42,004; -988
19:35:42,008; -989
19:35:42,012; -976
19:35:42,016; -972
19:35:42,020; -957
19:35:42,023; -948
19:35:42,027; -935
19:35:42,031; -923
19:35:42,035; -913
19:35:42,039; -898
19:35:42,043; -874
19:35:42,047; -860
19:35:42,051; -835
19:35:42,055; -817
19:35:42,059; -805
19:35:42,062; -781
19:35:42,066; -769
19:35:42,070; -733
19:35:42,074; -703
19:35:42,078; -681
19:35:42,082; -645
19:35:42,086; -619
19:35:42,090; -598
19:35:42,094; -561
19:35:42,098; -549
19:35:42,102; -525
19:35:42,105; -492
19:35:42,109; -476
19:35:42,113; -461
19:35:42,117; -450
19:35:42,121; -436
19:35:42,125; -440
19:35:42,129; -445
19:35:42,133; -454
19:35:42,137; -467
19:35:42,141; -497
19:35:42,145; -531
19:35:42,148; -573
19:35:42,152; -610
19:35:42,156; -660
19:35:42,160; -699
19:35:42,164; -726
19:35:42,168; -767
19:35:42,172; -794
19:35:42,176; -830
19:35:42,180; -843
19:35:42,184; -863
19:35:42,187; -894
19:35:42,191; -909
19:35:42,195; -923
19:35:42,199; -927
19:35:42,203; -938
19:35:42,207; -938
19:35:42,211; -937
19:35:42,215; -937
19:35:42,219; -951
19:35:42,223; -945
19:35:42,227; -955
19:35:42,230; -943
19:35:42,234; -942
19:35:42,238; -931
19:35:42,242; -927
19:35:42,246; -915
19:35:42,250; -908
19:35:42,254; -904
19:35:42,258; -903
19:35:42,262; -894
19:35:42,266; -897
19:35:42,270; -892
19:35:42,273; -893
19:35:42,277; -891
19:35:42,281; -885
19:35:42,285; -890
19:35:42,289; -888
19:35:42,293; -883
19:35:42,297; -891
19:35:42,301; -892
19:35:42,305; -891
19:35:42,309; -892
19:35:42,312; -897
19:35:42,316; -899
19:35:42,320; -902
19:35:42,324; -907
19:35:42,328; -910
19:35:42,332; -914
19:35:42,336; -915
19:35:42,340; -924
19:35:42,344; -920
19:35:42,348; -934
19:35:42,352; -935
19:35:42,355; -932
19:35:42,359; -934
19:35:42,363; -944
19:35:42,367; -940
19:35:42,371; -940
19:35:42,375; -947
19:35:42,379; -947
19:35:42,383; -944
19:35:42,387; -944
19:35:42,391; -948
19:35:42,395; -955
19:35:42,398; -949
19:35:42,402; -950
19:35:42,406; -961
19:35:42,410; -962
19:35:42,414; -957
19:35:42,418; -960
19:35:42,422; -966
19:35:42,426; -959
19:35:42,430; -959
19:35:42,434; -955
19:35:42,437; -954
19:35:42,441; -960
19:35:42,445; -958
19:35:42,449; -957
19:35:42,453; -962
19:35:42,457; -961
19:35:42,461; -962
19:35:42,465; -960
19:35:42,469; -963
19:35:42,473; -958
19:35:42,477; -956
19:35:42,480; -952
19:35:42,484; -960
19:35:42,488; -958
19:35:42,492; -961
19:35:42,496; -966
19:35:42,500; -960
19:35:42,504; -957
19:35:42,508; -956
19:35:42,512; -957
19:35:42,516; -954
19:35:42,520; -950
19:35:42,523; -955
19:35:42,527; -947
19:35:42,531; -943
19:35:42,535; -945
19:35:42,539; -950
19:35:42,543; -943
19:35:42,547; -946
19:35:42,551; -945
19:35:42,555; -944
19:35:42,559; -945
19:35:42,562; -943
19:35:42,566; -942
19:35:42,570; -943
19:35:42,574; -936
19:35:42,578; -934
19:35:42,582; -938
19:35:42,586; -933
19:35:42,590; -934
19:35:42,594; -941
19:35:42,598; -935
19:35:42,602; -934
19:35:42,605; -933
19:35:42,609; -933
19:35:42,613; -930
19:35:42,617; -928
19:35:42,621; -933
19:35:42,625; -923
19:35:42,629; -923
19:35:42,633; -929
19:35:42,637; -925
19:35:42,641; -923
19:35:42,645; -913
19:35:42,648; -901
19:35:42,652; -886
19:35:42,656; -862
19:35:42,660; -837
19:35:42,664; -838
19:35:42,668; -807
19:35:42,672; -795
19:35:42,676; -788
19:35:42,680; -777
19:35:42,684; -763
19:35:42,687; -763
19:35:42,691; -772
19:35:42,695; -779
19:35:42,699; -785
19:35:42,703; -805
19:35:42,707; -804
19:35:42,711; -806
19:35:42,715; -825
19:35:42,719; -823
19:35:42,723; -827
19:35:42,727; -853
19:35:42,730; -866
19:35:42,734; -889
19:35:42,738; -917
19:35:42,742; -916
19:35:42,746; -919
19:35:42,750; -918
19:35:42,754; -909
19:35:42,758; -900
19:35:42,762; -899
19:35:42,766; -905
19:35:42,770; -908
19:35:42,773; -894
19:35:42,777; -896
19:35:42,781; -907
19:35:42,785; -906
19:35:42,789; -918
19:35:42,793; -942
19:35:42,797; -905
19:35:42,801; -849
19:35:42,805; -690
19:35:42,809; -319
19:35:42,812; 166
19:35:42,816; 670
19:35:42,820; 1193
19:35:42,824; 1575
19:35:42,828; 1622
19:35:42,832; 1476
19:35:42,836; 1041
19:35:42,840; 355
19:35:42,844; -321
19:35:42,848; -850
19:35:42,852; -960
19:35:42,855; -1034
19:35:42,859; -922
19:35:42,863; -738
19:35:42,867; -732
19:35:42,871; -809
19:35:42,875; -910
19:35:42,879; -899
19:35:42,883; -857
19:35:42,887; -856
19:35:42,891; -858
19:35:42,895; -847
19:35:42,898; -903
19:35:42,902; -884
19:35:42,906; -854
19:35:42,910; -858
19:35:42,914; -837
19:35:42,918; -861
19:35:42,922; -853
19:35:42,926; -843
19:35:42,930; -848
19:35:42,934; -849
19:35:42,937; -842
19:35:42,941; -829
19:35:42,945; -827
19:35:42,949; -810
19:35:42,953; -816
19:35:42,957; -798
19:35:42,961; -797
19:35:42,965; -790
19:35:42,969; -785
19:35:42,973; -775
19:35:42,977; -771
19:35:42,980; -761
19:35:42,984; -766
19:35:42,988; -749
19:35:42,992; -738
19:35:42,996; -726
19:35:43,000; -709
19:35:43,004; -697
19:35:43,008; -680
19:35:43,012; -661
19:35:43,016; -646
19:35:43,020; -631
19:35:43,023; -610
19:35:43,027; -595
19:35:43,031; -569
19:35:43,035; -546
19:35:43,039; -517
19:35:43,043; -489
19:35:43,047; -454
19:35:43,051; -424
19:35:43,055; -387
19:35:43,059; -352
19:35:43,062; -329
19:35:43,066; -307
19:35:43,070; -276
19:35:43,074; -263
19:35:43,078; -248
19:35:43,082; -223
19:35:43,086; -203
19:35:43,090; -203
19:35:43,094; -207
19:35:43,098; -211
19:35:43,102; -235
19:35:43,105; -260
19:35:43,109; -296
19:35:43,113; -321
19:35:43,117; -368
19:35:43,121; -432
19:35:43,125; -473
19:35:43,129; -514
19:35:43,133; -562
19:35:43,137; -592
19:35:43,141; -623
19:35:43,145; -635
19:35:43,148; -661
19:35:43,152; -683
19:35:43,156; -704
19:35:43,160; -718
19:35:43,164; -732
19:35:43,168; -744
19:35:43,172; -750
19:35:43,176; -752
19:35:43,180; -761
19:35:43,184; -759
19:35:43,188; -767
19:35:43,191; -761
19:35:43,195; -763
19:35:43,199; -757
19:35:43,203; -748
19:35:43,207; -749
19:35:43,211; -740
19:35:43,215; -732
19:35:43,219; -731
19:35:43,223; -719
19:35:43,227; -728
19:35:43,230; -727
19:35:43,234; -720
19:35:43,238; -717
19:35:43,242; -706
19:35:43,246; -708
19:35:43,250; -700
19:35:43,254; -697
19:35:43,258; -706
19:35:43,262; -689
19:35:43,266; -691
19:35:43,270; -696
19:35:43,273; -704
19:35:43,277; -714
19:35:43,281; -717
19:35:43,285; -725
19:35:43,289; -723
19:35:43,293; -713
19:35:43,297; -726
19:35:43,301; -720
19:35:43,305; -728
19:35:43,309; -736
19:35:43,312; -738
19:35:43,316; -738
19:35:43,320; -749
19:35:43,324; -747
19:35:43,328; -759
19:35:43,332; -751
19:35:43,336; -759
